signal,peaks,instant_rr,time,Channel_0
98.0,0.0,,0.0,0.0
98.0,0.0,,0.013333333333333334,0.0
98.0,0.0,,0.02666666666666667,0.0
98.0,0.0,,0.04,0.0
98.0,0.0,,0.05333333333333334,0.0
98.0,0.0,,0.06666666666666667,0.0
98.0,0.0,,0.08,0.0
98.0,0.0,,0.09333333333333334,0.0
97.0,0.0,,0.10666666666666667,0.0
97.0,0.0,,0.12,0.0
97.0,0.0,,0.13333333333333333,0.0
97.0,0.0,,0.14666666666666667,0.0
96.0,0.0,,0.16,0.0
96.0,0.0,,0.17333333333333334,0.0
96.0,0.0,,0.18666666666666668,0.0
96.0,0.0,,0.2,0.0
96.0,0.0,,0.21333333333333335,0.0
96.0,0.0,,0.22666666666666666,0.0
95.0,0.0,,0.24,0.0
95.0,0.0,,0.25333333333333335,0.0
95.0,0.0,,0.26666666666666666,0.0
95.0,0.0,,0.28,0.0
95.0,0.0,,0.29333333333333333,0.0
95.0,0.0,,0.30666666666666664,0.0
95.0,0.0,,0.32,0.0
95.0,0.0,,0.3333333333333333,0.0
95.0,0.0,,0.3466666666666667,0.0
95.0,0.0,,0.36,0.0
95.0,0.0,,0.37333333333333335,0.0
95.0,0.0,,0.38666666666666666,0.0
95.0,0.0,,0.4,0.0
96.0,0.0,,0.41333333333333333,0.0
96.0,0.0,,0.4266666666666667,0.0
96.0,0.0,,0.44,0.0
96.0,0.0,,0.4533333333333333,0.0
96.0,0.0,,0.4666666666666667,0.0
96.0,0.0,,0.48,0.0
96.0,0.0,,0.49333333333333335,0.0
96.0,0.0,,0.5066666666666667,0.0
96.0,0.0,,0.52,0.0
96.0,0.0,,0.5333333333333333,0.0
96.0,0.0,,0.5466666666666666,0.0
96.0,0.0,,0.56,0.0
96.0,0.0,,0.5733333333333334,0.0
96.0,0.0,,0.5866666666666667,0.0
96.0,0.0,,0.6,0.0
96.0,0.0,,0.6133333333333333,0.0
96.0,0.0,,0.6266666666666667,0.0
96.0,0.0,,0.64,0.0
96.0,0.0,,0.6533333333333333,0.0
96.0,0.0,,0.6666666666666666,0.0
96.0,0.0,,0.68,0.0
97.0,0.0,,0.6933333333333334,0.0
97.0,0.0,,0.7066666666666667,0.0
98.0,0.0,,0.72,0.0
100.0,0.0,,0.7333333333333333,0.0
102.0,0.0,,0.7466666666666667,0.0
105.0,0.0,,0.76,0.0
107.0,0.0,,0.7733333333333333,0.0
109.0,0.0,,0.7866666666666666,0.0
111.0,0.0,,0.8,0.0
112.0,0.0,,0.8133333333333334,0.0
112.0,0.0,,0.8266666666666667,0.0
112.0,0.0,,0.84,0.0
112.0,0.0,,0.8533333333333334,0.0
112.0,0.0,,0.8666666666666667,0.0
111.0,0.0,,0.88,0.0
111.0,0.0,,0.8933333333333333,0.0
110.0,0.0,,0.9066666666666666,0.0
110.0,0.0,,0.92,0.0
109.0,0.0,,0.9333333333333333,0.0
109.0,0.0,,0.9466666666666667,0.0
108.0,0.0,,0.96,0.0
107.0,0.0,,0.9733333333333334,0.0
106.0,0.0,,0.9866666666666667,0.0
105.0,0.0,,1.0,0.0
103.0,0.0,,1.0133333333333334,0.0
102.0,0.0,,1.0266666666666666,0.0
101.0,0.0,,1.04,0.0
100.0,0.0,,1.0533333333333332,0.0
99.0,0.0,,1.0666666666666667,0.0
99.0,0.0,,1.08,0.0
99.0,0.0,,1.0933333333333333,0.0
99.0,0.0,,1.1066666666666667,0.0
99.0,0.0,,1.12,0.0
98.0,0.0,,1.1333333333333333,0.0
98.0,0.0,,1.1466666666666667,0.0
98.0,0.0,,1.16,0.0
98.0,0.0,,1.1733333333333333,0.0
97.0,0.0,,1.1866666666666668,0.0
97.0,0.0,,1.2,0.0
97.0,0.0,,1.2133333333333334,0.0
96.0,0.0,,1.2266666666666666,0.0
96.0,0.0,,1.24,0.0
96.0,0.0,,1.2533333333333334,0.0
96.0,0.0,,1.2666666666666666,0.0
95.0,0.0,,1.28,0.0
95.0,0.0,,1.2933333333333332,0.0
95.0,0.0,,1.3066666666666666,0.0
95.0,0.0,,1.32,0.0
95.0,0.0,,1.3333333333333333,0.0
95.0,0.0,,1.3466666666666667,0.0
95.0,0.0,,1.36,0.0
95.0,0.0,,1.3733333333333333,0.0
94.0,0.0,,1.3866666666666667,0.0
94.0,0.0,,1.4,0.0
94.0,0.0,,1.4133333333333333,0.0
94.0,0.0,,1.4266666666666667,0.0
94.0,0.0,,1.44,0.0
95.0,0.0,,1.4533333333333334,0.0
95.0,0.0,,1.4666666666666666,0.0
95.0,0.0,,1.48,0.0
95.0,0.0,,1.4933333333333334,0.0
94.0,0.0,,1.5066666666666666,0.0
94.0,0.0,,1.52,0.0
94.0,0.0,,1.5333333333333334,0.0
94.0,0.0,,1.5466666666666666,0.0
94.0,0.0,,1.56,0.0
94.0,0.0,,1.5733333333333333,0.0
95.0,0.0,,1.5866666666666667,0.0
95.0,0.0,,1.6,0.0
95.0,0.0,,1.6133333333333333,0.0
96.0,0.0,,1.6266666666666667,0.0
98.0,0.0,,1.64,0.0
100.0,0.0,,1.6533333333333333,0.0
102.0,0.0,,1.6666666666666667,0.0
104.0,0.0,,1.68,0.0
106.0,0.0,,1.6933333333333334,0.0
107.0,0.0,,1.7066666666666668,0.0
108.0,0.0,,1.72,0.0
108.0,1.0,,1.7333333333333334,0.0
108.0,0.0,,1.7466666666666666,0.0
108.0,0.0,,1.76,0.0
108.0,0.0,,1.7733333333333334,0.0
107.0,0.0,,1.7866666666666666,0.0
107.0,0.0,,1.8,0.0
106.0,0.0,,1.8133333333333332,0.0
106.0,0.0,,1.8266666666666667,0.0
105.0,0.0,,1.84,0.0
105.0,0.0,,1.8533333333333333,0.0
104.0,0.0,,1.8666666666666667,0.0
103.0,0.0,,1.88,0.0
102.0,0.0,,1.8933333333333333,0.0
101.0,0.0,,1.9066666666666667,0.0
100.0,0.0,,1.92,0.0
99.0,0.0,,1.9333333333333333,0.0
99.0,0.0,,1.9466666666666668,0.0
99.0,0.0,,1.96,0.0
98.0,0.0,,1.9733333333333334,0.0
98.0,0.0,,1.9866666666666666,0.0
98.0,0.0,,2.0,0.0
98.0,0.0,,2.013333333333333,0.0
98.0,0.0,,2.026666666666667,0.0
98.0,0.0,,2.04,0.0
98.0,0.0,,2.0533333333333332,0.0
98.0,0.0,,2.066666666666667,0.0
97.0,0.0,,2.08,0.0
97.0,0.0,,2.0933333333333333,0.0
97.0,0.0,,2.1066666666666665,0.0
97.0,0.0,,2.12,0.0
96.0,0.0,,2.1333333333333333,0.0
96.0,0.0,,2.1466666666666665,0.0
96.0,0.0,,2.16,0.0
96.0,0.0,,2.1733333333333333,0.0
96.0,0.0,,2.1866666666666665,0.0
96.0,0.0,,2.2,0.0
96.0,0.0,,2.2133333333333334,0.0
96.0,0.0,,2.2266666666666666,0.0
96.0,0.0,,2.24,0.0
96.0,0.0,,2.2533333333333334,0.0
96.0,0.0,,2.2666666666666666,0.0
96.0,0.0,,2.28,0.0
96.0,0.0,,2.2933333333333334,0.0
96.0,0.0,,2.3066666666666666,0.0
96.0,0.0,,2.32,0.0
96.0,0.0,,2.3333333333333335,0.0
96.0,0.0,,2.3466666666666667,0.0
96.0,0.0,,2.36,0.0
96.0,0.0,,2.3733333333333335,0.0
96.0,0.0,,2.3866666666666667,0.0
96.0,0.0,,2.4,0.0
96.0,0.0,,2.4133333333333336,0.0
96.0,0.0,,2.4266666666666667,0.0
96.0,0.0,,2.44,0.0
97.0,0.0,,2.453333333333333,0.0
98.0,0.0,,2.466666666666667,0.0
99.0,0.0,,2.48,0.0
101.0,0.0,,2.493333333333333,0.0
103.0,0.0,,2.506666666666667,0.0
105.0,0.0,,2.52,0.0
107.0,0.0,,2.533333333333333,0.0
109.0,0.0,,2.546666666666667,0.0
109.0,1.0,826.6666666666666,2.56,0.0
110.0,0.0,826.6666666666666,2.5733333333333333,0.0
110.0,0.0,826.6666666666666,2.5866666666666664,0.0
109.0,0.0,826.6666666666666,2.6,0.0
109.0,0.0,826.6666666666666,2.6133333333333333,0.0
109.0,0.0,826.6666666666666,2.6266666666666665,0.0
108.0,0.0,826.6666666666666,2.64,0.0
108.0,0.0,826.6666666666666,2.6533333333333333,0.0
108.0,0.0,826.6666666666666,2.6666666666666665,0.0
107.0,0.0,826.6666666666666,2.68,0.0
107.0,0.0,826.6666666666666,2.6933333333333334,0.0
106.0,0.0,826.6666666666666,2.7066666666666666,0.0
105.0,0.0,826.6666666666666,2.72,0.0
104.0,0.0,826.6666666666666,2.7333333333333334,0.0
103.0,0.0,826.6666666666666,2.7466666666666666,0.0
102.0,0.0,826.6666666666666,2.76,0.0
101.0,0.0,826.6666666666666,2.7733333333333334,0.0
100.0,0.0,826.6666666666666,2.7866666666666666,0.0
99.0,0.0,826.6666666666666,2.8,0.0
99.0,0.0,826.6666666666666,2.8133333333333335,0.0
99.0,0.0,826.6666666666666,2.8266666666666667,0.0
99.0,0.0,826.6666666666666,2.84,0.0
98.0,0.0,826.6666666666666,2.8533333333333335,0.0
98.0,0.0,826.6666666666666,2.8666666666666667,0.0
98.0,0.0,826.6666666666666,2.88,0.0
98.0,0.0,826.6666666666666,2.8933333333333335,0.0
98.0,0.0,826.6666666666666,2.9066666666666667,0.0
98.0,0.0,826.6666666666666,2.92,0.0
97.0,0.0,826.6666666666666,2.933333333333333,0.0
97.0,0.0,826.6666666666666,2.9466666666666668,0.0
97.0,0.0,826.6666666666666,2.96,0.0
96.0,0.0,826.6666666666666,2.973333333333333,0.0
96.0,0.0,826.6666666666666,2.986666666666667,0.0
96.0,0.0,826.6666666666666,3.0,0.0
96.0,0.0,826.6666666666666,3.013333333333333,0.0
96.0,0.0,826.6666666666666,3.026666666666667,0.0
95.0,0.0,826.6666666666666,3.04,0.0
95.0,0.0,826.6666666666666,3.0533333333333332,0.0
95.0,0.0,826.6666666666666,3.066666666666667,0.0
95.0,0.0,826.6666666666666,3.08,0.0
95.0,0.0,826.6666666666666,3.0933333333333333,0.0
95.0,0.0,826.6666666666666,3.1066666666666665,0.0
95.0,0.0,826.6666666666666,3.12,0.0
95.0,0.0,826.6666666666666,3.1333333333333333,0.0
95.0,0.0,826.6666666666666,3.1466666666666665,0.0
95.0,0.0,826.6666666666666,3.16,0.0
95.0,0.0,826.6666666666666,3.1733333333333333,0.0
95.0,0.0,826.6666666666666,3.1866666666666665,0.0
95.0,0.0,826.6666666666666,3.2,0.0
95.0,0.0,826.6666666666666,3.2133333333333334,0.0
95.0,0.0,826.6666666666666,3.2266666666666666,0.0
95.0,0.0,826.6666666666666,3.24,0.0
95.0,0.0,826.6666666666666,3.2533333333333334,0.0
95.0,0.0,826.6666666666666,3.2666666666666666,0.0
95.0,0.0,826.6666666666666,3.28,0.0
95.0,0.0,826.6666666666666,3.2933333333333334,0.0
95.0,0.0,826.6666666666666,3.3066666666666666,0.0
96.0,0.0,826.6666666666666,3.32,0.0
96.0,0.0,826.6666666666666,3.3333333333333335,0.0
97.0,0.0,826.6666666666666,3.3466666666666667,0.0
99.0,0.0,826.6666666666666,3.36,0.0
101.0,0.0,826.6666666666666,3.3733333333333335,0.0
103.0,0.0,826.6666666666666,3.3866666666666667,0.0
105.0,0.0,826.6666666666666,3.4,0.0
107.0,0.0,826.6666666666666,3.4133333333333336,0.0
108.0,0.0,826.6666666666666,3.4266666666666667,0.0
109.0,0.0,826.6666666666666,3.44,0.0
109.0,1.0,893.3333333333333,3.453333333333333,0.0
109.0,0.0,893.3333333333333,3.466666666666667,0.0
109.0,0.0,893.3333333333333,3.48,0.0
108.0,0.0,893.3333333333333,3.493333333333333,0.0
108.0,0.0,893.3333333333333,3.506666666666667,0.0
108.0,0.0,893.3333333333333,3.52,0.0
107.0,0.0,893.3333333333333,3.533333333333333,0.0
107.0,0.0,893.3333333333333,3.546666666666667,0.0
106.0,0.0,893.3333333333333,3.56,0.0
106.0,0.0,893.3333333333333,3.5733333333333333,0.0
105.0,0.0,893.3333333333333,3.5866666666666664,0.0
104.0,0.0,893.3333333333333,3.6,0.0
103.0,0.0,893.3333333333333,3.6133333333333333,0.0
101.0,0.0,893.3333333333333,3.6266666666666665,0.0
100.0,0.0,893.3333333333333,3.64,0.0
99.0,0.0,893.3333333333333,3.6533333333333333,0.0
99.0,0.0,893.3333333333333,3.6666666666666665,0.0
98.0,0.0,893.3333333333333,3.68,0.0
98.0,0.0,893.3333333333333,3.6933333333333334,0.0
98.0,0.0,893.3333333333333,3.7066666666666666,0.0
98.0,0.0,893.3333333333333,3.72,0.0
98.0,0.0,893.3333333333333,3.7333333333333334,0.0
98.0,0.0,893.3333333333333,3.7466666666666666,0.0
98.0,0.0,893.3333333333333,3.76,0.0
97.0,0.0,893.3333333333333,3.7733333333333334,0.0
97.0,0.0,893.3333333333333,3.7866666666666666,0.0
97.0,0.0,893.3333333333333,3.8,0.0
97.0,0.0,893.3333333333333,3.8133333333333335,0.0
97.0,0.0,893.3333333333333,3.8266666666666667,0.0
96.0,0.0,893.3333333333333,3.84,0.0
96.0,0.0,893.3333333333333,3.8533333333333335,0.0
96.0,0.0,893.3333333333333,3.8666666666666667,0.0
96.0,0.0,893.3333333333333,3.88,0.0
96.0,0.0,893.3333333333333,3.8933333333333335,0.0
95.0,0.0,893.3333333333333,3.9066666666666667,0.0
95.0,0.0,893.3333333333333,3.92,0.0
95.0,0.0,893.3333333333333,3.933333333333333,0.0
95.0,0.0,893.3333333333333,3.9466666666666668,0.0
95.0,0.0,893.3333333333333,3.96,0.0
95.0,0.0,893.3333333333333,3.973333333333333,0.0
95.0,0.0,893.3333333333333,3.986666666666667,0.0
95.0,0.0,893.3333333333333,4.0,0.0
95.0,0.0,893.3333333333333,4.013333333333334,0.0
95.0,0.0,893.3333333333333,4.026666666666666,0.0
95.0,0.0,893.3333333333333,4.04,0.0
95.0,0.0,893.3333333333333,4.053333333333334,0.0
95.0,0.0,893.3333333333333,4.066666666666666,0.0
95.0,0.0,893.3333333333333,4.08,0.0
95.0,0.0,893.3333333333333,4.093333333333334,0.0
95.0,0.0,893.3333333333333,4.1066666666666665,0.0
95.0,0.0,893.3333333333333,4.12,0.0
95.0,0.0,893.3333333333333,4.133333333333334,0.0
95.0,0.0,893.3333333333333,4.1466666666666665,0.0
95.0,0.0,893.3333333333333,4.16,0.0
95.0,0.0,893.3333333333333,4.173333333333333,0.0
96.0,0.0,893.3333333333333,4.1866666666666665,0.0
96.0,0.0,893.3333333333333,4.2,0.0
97.0,0.0,893.3333333333333,4.213333333333333,0.0
99.0,0.0,893.3333333333333,4.226666666666667,0.0
100.0,0.0,893.3333333333333,4.24,0.0
103.0,0.0,893.3333333333333,4.253333333333333,0.0
105.0,0.0,893.3333333333333,4.266666666666667,0.0
107.0,0.0,893.3333333333333,4.28,0.0
108.0,0.0,893.3333333333333,4.293333333333333,0.0
109.0,0.0,893.3333333333333,4.306666666666667,0.0
109.0,1.0,866.6666666666667,4.32,0.0
109.0,0.0,866.6666666666667,4.333333333333333,0.0
109.0,0.0,866.6666666666667,4.346666666666667,0.0
108.0,0.0,866.6666666666667,4.36,0.0
108.0,0.0,866.6666666666667,4.373333333333333,0.0
107.0,0.0,866.6666666666667,4.386666666666667,0.0
107.0,0.0,866.6666666666667,4.4,0.0
107.0,0.0,866.6666666666667,4.413333333333333,0.0
106.0,0.0,866.6666666666667,4.426666666666667,0.0
105.0,0.0,866.6666666666667,4.44,0.0
105.0,0.0,866.6666666666667,4.453333333333333,0.0
104.0,0.0,866.6666666666667,4.466666666666667,0.0
103.0,0.0,866.6666666666667,4.48,0.0
102.0,0.0,866.6666666666667,4.493333333333333,0.0
101.0,0.0,866.6666666666667,4.506666666666667,0.0
100.0,0.0,866.6666666666667,4.52,0.0
99.0,0.0,866.6666666666667,4.533333333333333,0.0
99.0,0.0,866.6666666666667,4.546666666666667,0.0
99.0,0.0,866.6666666666667,4.56,0.0
98.0,0.0,866.6666666666667,4.573333333333333,0.0
98.0,0.0,866.6666666666667,4.586666666666667,0.0
98.0,0.0,866.6666666666667,4.6,0.0
98.0,0.0,866.6666666666667,4.613333333333333,0.0
98.0,0.0,866.6666666666667,4.626666666666667,0.0
98.0,0.0,866.6666666666667,4.64,0.0
97.0,0.0,866.6666666666667,4.653333333333333,0.0
97.0,0.0,866.6666666666667,4.666666666666667,0.0
97.0,0.0,866.6666666666667,4.68,0.0
97.0,0.0,866.6666666666667,4.693333333333333,0.0
96.0,0.0,866.6666666666667,4.706666666666667,0.0
96.0,0.0,866.6666666666667,4.72,0.0
96.0,0.0,866.6666666666667,4.733333333333333,0.0
96.0,0.0,866.6666666666667,4.746666666666667,0.0
96.0,0.0,866.6666666666667,4.76,0.0
96.0,0.0,866.6666666666667,4.773333333333333,0.0
96.0,0.0,866.6666666666667,4.786666666666667,0.0
96.0,0.0,866.6666666666667,4.8,0.0
96.0,0.0,866.6666666666667,4.8133333333333335,0.0
96.0,0.0,866.6666666666667,4.826666666666667,0.0
95.0,0.0,866.6666666666667,4.84,0.0
95.0,0.0,866.6666666666667,4.8533333333333335,0.0
95.0,0.0,866.6666666666667,4.866666666666666,0.0
95.0,0.0,866.6666666666667,4.88,0.0
96.0,0.0,866.6666666666667,4.8933333333333335,0.0
96.0,0.0,866.6666666666667,4.906666666666666,0.0
96.0,0.0,866.6666666666667,4.92,0.0
96.0,0.0,866.6666666666667,4.933333333333334,0.0
96.0,0.0,866.6666666666667,4.946666666666666,2.0
96.0,0.0,866.6666666666667,4.96,0.0
96.0,0.0,866.6666666666667,4.973333333333334,0.0
96.0,0.0,866.6666666666667,4.986666666666666,0.0
96.0,0.0,866.6666666666667,5.0,0.0
96.0,0.0,866.6666666666667,5.013333333333334,0.0
96.0,0.0,866.6666666666667,5.026666666666666,0.0
96.0,0.0,866.6666666666667,5.04,0.0
96.0,0.0,866.6666666666667,5.053333333333334,0.0
96.0,0.0,866.6666666666667,5.066666666666666,0.0
97.0,0.0,866.6666666666667,5.08,0.0
98.0,0.0,866.6666666666667,5.093333333333334,0.0
100.0,0.0,866.6666666666667,5.1066666666666665,0.0
102.0,0.0,866.6666666666667,5.12,0.0
104.0,0.0,866.6666666666667,5.133333333333334,0.0
106.0,0.0,866.6666666666667,5.1466666666666665,0.0
108.0,0.0,866.6666666666667,5.16,0.0
109.0,0.0,866.6666666666667,5.173333333333333,0.0
110.0,0.0,866.6666666666667,5.1866666666666665,0.0
110.0,1.0,880.0,5.2,0.0
110.0,0.0,880.0,5.213333333333333,0.0
110.0,0.0,880.0,5.226666666666667,0.0
109.0,0.0,880.0,5.24,0.0
109.0,0.0,880.0,5.253333333333333,0.0
108.0,0.0,880.0,5.266666666666667,0.0
108.0,0.0,880.0,5.28,0.0
108.0,0.0,880.0,5.293333333333333,0.0
107.0,0.0,880.0,5.306666666666667,0.0
107.0,0.0,880.0,5.32,0.0
106.0,0.0,880.0,5.333333333333333,0.0
105.0,0.0,880.0,5.346666666666667,0.0
103.0,0.0,880.0,5.36,0.0
102.0,0.0,880.0,5.373333333333333,0.0
101.0,0.0,880.0,5.386666666666667,0.0
100.0,0.0,880.0,5.4,0.0
99.0,0.0,880.0,5.413333333333333,0.0
99.0,0.0,880.0,5.426666666666667,0.0
99.0,0.0,880.0,5.44,0.0
99.0,0.0,880.0,5.453333333333333,0.0
99.0,0.0,880.0,5.466666666666667,0.0
99.0,0.0,880.0,5.48,0.0
98.0,0.0,880.0,5.493333333333333,0.0
98.0,0.0,880.0,5.506666666666667,0.0
98.0,0.0,880.0,5.52,0.0
98.0,0.0,880.0,5.533333333333333,0.0
97.0,0.0,880.0,5.546666666666667,0.0
97.0,0.0,880.0,5.56,0.0
97.0,0.0,880.0,5.573333333333333,0.0
97.0,0.0,880.0,5.586666666666667,0.0
96.0,0.0,880.0,5.6,0.0
96.0,0.0,880.0,5.613333333333333,0.0
96.0,0.0,880.0,5.626666666666667,0.0
96.0,0.0,880.0,5.64,0.0
96.0,0.0,880.0,5.653333333333333,0.0
95.0,0.0,880.0,5.666666666666667,0.0
95.0,0.0,880.0,5.68,0.0
95.0,0.0,880.0,5.693333333333333,0.0
95.0,0.0,880.0,5.706666666666667,0.0
95.0,0.0,880.0,5.72,0.0
95.0,0.0,880.0,5.733333333333333,0.0
95.0,0.0,880.0,5.746666666666667,0.0
95.0,0.0,880.0,5.76,0.0
95.0,0.0,880.0,5.773333333333333,0.0
95.0,0.0,880.0,5.786666666666667,0.0
95.0,0.0,880.0,5.8,0.0
95.0,0.0,880.0,5.8133333333333335,0.0
95.0,0.0,880.0,5.826666666666667,0.0
95.0,0.0,880.0,5.84,0.0
95.0,0.0,880.0,5.8533333333333335,0.0
95.0,0.0,880.0,5.866666666666666,0.0
95.0,0.0,880.0,5.88,0.0
95.0,0.0,880.0,5.8933333333333335,0.0
95.0,0.0,880.0,5.906666666666666,0.0
95.0,0.0,880.0,5.92,0.0
95.0,0.0,880.0,5.933333333333334,0.0
95.0,0.0,880.0,5.946666666666666,0.0
95.0,0.0,880.0,5.96,0.0
95.0,0.0,880.0,5.973333333333334,0.0
96.0,0.0,880.0,5.986666666666666,0.0
97.0,0.0,880.0,6.0,0.0
99.0,0.0,880.0,6.013333333333334,0.0
101.0,0.0,880.0,6.026666666666666,0.0
103.0,0.0,880.0,6.04,0.0
105.0,0.0,880.0,6.053333333333334,0.0
107.0,0.0,880.0,6.066666666666666,0.0
108.0,0.0,880.0,6.08,0.0
109.0,0.0,880.0,6.093333333333334,0.0
109.0,1.0,906.6666666666666,6.1066666666666665,0.0
109.0,0.0,906.6666666666666,6.12,0.0
109.0,0.0,906.6666666666666,6.133333333333334,0.0
108.0,0.0,906.6666666666666,6.1466666666666665,0.0
108.0,0.0,906.6666666666666,6.16,0.0
107.0,0.0,906.6666666666666,6.173333333333333,0.0
107.0,0.0,906.6666666666666,6.1866666666666665,0.0
106.0,0.0,906.6666666666666,6.2,0.0
106.0,0.0,906.6666666666666,6.213333333333333,0.0
105.0,0.0,906.6666666666666,6.226666666666667,0.0
104.0,0.0,906.6666666666666,6.24,0.0
103.0,0.0,906.6666666666666,6.253333333333333,0.0
102.0,0.0,906.6666666666666,6.266666666666667,0.0
101.0,0.0,906.6666666666666,6.28,0.0
100.0,0.0,906.6666666666666,6.293333333333333,0.0
99.0,0.0,906.6666666666666,6.306666666666667,0.0
98.0,0.0,906.6666666666666,6.32,0.0
98.0,0.0,906.6666666666666,6.333333333333333,0.0
98.0,0.0,906.6666666666666,6.346666666666667,0.0
97.0,0.0,906.6666666666666,6.36,0.0
97.0,0.0,906.6666666666666,6.373333333333333,0.0
97.0,0.0,906.6666666666666,6.386666666666667,0.0
97.0,0.0,906.6666666666666,6.4,0.0
97.0,0.0,906.6666666666666,6.413333333333333,0.0
96.0,0.0,906.6666666666666,6.426666666666667,0.0
96.0,0.0,906.6666666666666,6.44,0.0
96.0,0.0,906.6666666666666,6.453333333333333,0.0
96.0,0.0,906.6666666666666,6.466666666666667,0.0
95.0,0.0,906.6666666666666,6.48,0.0
95.0,0.0,906.6666666666666,6.493333333333333,0.0
95.0,0.0,906.6666666666666,6.506666666666667,0.0
95.0,0.0,906.6666666666666,6.52,0.0
95.0,0.0,906.6666666666666,6.533333333333333,0.0
94.0,0.0,906.6666666666666,6.546666666666667,0.0
94.0,0.0,906.6666666666666,6.56,0.0
94.0,0.0,906.6666666666666,6.573333333333333,0.0
94.0,0.0,906.6666666666666,6.586666666666667,0.0
94.0,0.0,906.6666666666666,6.6,0.0
94.0,0.0,906.6666666666666,6.613333333333333,0.0
94.0,0.0,906.6666666666666,6.626666666666667,0.0
94.0,0.0,906.6666666666666,6.64,0.0
94.0,0.0,906.6666666666666,6.653333333333333,0.0
94.0,0.0,906.6666666666666,6.666666666666667,0.0
94.0,0.0,906.6666666666666,6.68,0.0
94.0,0.0,906.6666666666666,6.693333333333333,0.0
94.0,0.0,906.6666666666666,6.706666666666667,0.0
94.0,0.0,906.6666666666666,6.72,0.0
94.0,0.0,906.6666666666666,6.733333333333333,0.0
94.0,0.0,906.6666666666666,6.746666666666667,0.0
95.0,0.0,906.6666666666666,6.76,0.0
95.0,0.0,906.6666666666666,6.773333333333333,0.0
95.0,0.0,906.6666666666666,6.786666666666667,0.0
95.0,0.0,906.6666666666666,6.8,0.0
95.0,0.0,906.6666666666666,6.8133333333333335,0.0
95.0,0.0,906.6666666666666,6.826666666666667,0.0
95.0,0.0,906.6666666666666,6.84,0.0
95.0,0.0,906.6666666666666,6.8533333333333335,0.0
96.0,0.0,906.6666666666666,6.866666666666666,0.0
97.0,0.0,906.6666666666666,6.88,0.0
99.0,0.0,906.6666666666666,6.8933333333333335,0.0
101.0,0.0,906.6666666666666,6.906666666666666,0.0
103.0,0.0,906.6666666666666,6.92,0.0
105.0,0.0,906.6666666666666,6.933333333333334,0.0
107.0,0.0,906.6666666666666,6.946666666666666,0.0
108.0,0.0,906.6666666666666,6.96,0.0
109.0,0.0,906.6666666666666,6.973333333333334,0.0
109.0,1.0,880.0,6.986666666666666,0.0
109.0,0.0,880.0,7.0,0.0
108.0,0.0,880.0,7.013333333333334,0.0
108.0,0.0,880.0,7.026666666666666,0.0
107.0,0.0,880.0,7.04,0.0
107.0,0.0,880.0,7.053333333333334,0.0
106.0,0.0,880.0,7.066666666666666,0.0
106.0,0.0,880.0,7.08,0.0
105.0,0.0,880.0,7.093333333333334,0.0
105.0,0.0,880.0,7.1066666666666665,0.0
104.0,0.0,880.0,7.12,0.0
103.0,0.0,880.0,7.133333333333334,0.0
102.0,0.0,880.0,7.1466666666666665,0.0
101.0,0.0,880.0,7.16,0.0
100.0,0.0,880.0,7.173333333333333,0.0
100.0,0.0,880.0,7.1866666666666665,0.0
100.0,0.0,880.0,7.2,0.0
100.0,0.0,880.0,7.213333333333333,0.0
100.0,0.0,880.0,7.226666666666667,0.0
100.0,0.0,880.0,7.24,0.0
99.0,0.0,880.0,7.253333333333333,0.0
99.0,0.0,880.0,7.266666666666667,0.0
99.0,0.0,880.0,7.28,0.0
99.0,0.0,880.0,7.293333333333333,0.0
99.0,0.0,880.0,7.306666666666667,0.0
98.0,0.0,880.0,7.32,0.0
98.0,0.0,880.0,7.333333333333333,0.0
98.0,0.0,880.0,7.346666666666667,0.0
98.0,0.0,880.0,7.36,0.0
98.0,0.0,880.0,7.373333333333333,0.0
97.0,0.0,880.0,7.386666666666667,0.0
97.0,0.0,880.0,7.4,0.0
97.0,0.0,880.0,7.413333333333333,0.0
97.0,0.0,880.0,7.426666666666667,0.0
97.0,0.0,880.0,7.44,0.0
97.0,0.0,880.0,7.453333333333333,0.0
97.0,0.0,880.0,7.466666666666667,0.0
97.0,0.0,880.0,7.48,0.0
97.0,0.0,880.0,7.493333333333333,0.0
96.0,0.0,880.0,7.506666666666667,0.0
96.0,0.0,880.0,7.52,0.0
96.0,0.0,880.0,7.533333333333333,0.0
96.0,0.0,880.0,7.546666666666667,0.0
97.0,0.0,880.0,7.56,0.0
97.0,0.0,880.0,7.573333333333333,0.0
97.0,0.0,880.0,7.586666666666667,0.0
97.0,0.0,880.0,7.6,0.0
97.0,0.0,880.0,7.613333333333333,0.0
97.0,0.0,880.0,7.626666666666667,0.0
97.0,0.0,880.0,7.64,0.0
96.0,0.0,880.0,7.653333333333333,0.0
96.0,0.0,880.0,7.666666666666667,0.0
96.0,0.0,880.0,7.68,0.0
96.0,0.0,880.0,7.693333333333333,0.0
97.0,0.0,880.0,7.706666666666667,0.0
97.0,0.0,880.0,7.72,0.0
98.0,0.0,880.0,7.733333333333333,0.0
100.0,0.0,880.0,7.746666666666667,0.0
102.0,0.0,880.0,7.76,0.0
104.0,0.0,880.0,7.773333333333333,0.0
106.0,0.0,880.0,7.786666666666667,0.0
108.0,0.0,880.0,7.8,0.0
109.0,0.0,880.0,7.8133333333333335,0.0
110.0,0.0,880.0,7.826666666666667,0.0
110.0,1.0,853.3333333333334,7.84,0.0
110.0,0.0,853.3333333333334,7.8533333333333335,0.0
110.0,0.0,853.3333333333334,7.866666666666666,0.0
110.0,0.0,853.3333333333334,7.88,0.0
109.0,0.0,853.3333333333334,7.8933333333333335,0.0
109.0,0.0,853.3333333333334,7.906666666666666,0.0
109.0,0.0,853.3333333333334,7.92,0.0
108.0,0.0,853.3333333333334,7.933333333333334,0.0
108.0,0.0,853.3333333333334,7.946666666666666,0.0
107.0,0.0,853.3333333333334,7.96,0.0
106.0,0.0,853.3333333333334,7.973333333333334,0.0
105.0,0.0,853.3333333333334,7.986666666666666,0.0
104.0,0.0,853.3333333333334,8.0,0.0
103.0,0.0,853.3333333333334,8.013333333333334,0.0
102.0,0.0,853.3333333333334,8.026666666666667,0.0
101.0,0.0,853.3333333333334,8.04,0.0
100.0,0.0,853.3333333333334,8.053333333333333,0.0
100.0,0.0,853.3333333333334,8.066666666666666,0.0
99.0,0.0,853.3333333333334,8.08,0.0
99.0,0.0,853.3333333333334,8.093333333333334,0.0
99.0,0.0,853.3333333333334,8.106666666666667,0.0
99.0,0.0,853.3333333333334,8.12,0.0
99.0,0.0,853.3333333333334,8.133333333333333,0.0
99.0,0.0,853.3333333333334,8.146666666666667,0.0
99.0,0.0,853.3333333333334,8.16,0.0
98.0,0.0,853.3333333333334,8.173333333333334,0.0
98.0,0.0,853.3333333333334,8.186666666666667,0.0
98.0,0.0,853.3333333333334,8.2,0.0
97.0,0.0,853.3333333333334,8.213333333333333,0.0
97.0,0.0,853.3333333333334,8.226666666666667,0.0
97.0,0.0,853.3333333333334,8.24,0.0
97.0,0.0,853.3333333333334,8.253333333333334,0.0
96.0,0.0,853.3333333333334,8.266666666666667,0.0
96.0,0.0,853.3333333333334,8.28,0.0
96.0,0.0,853.3333333333334,8.293333333333333,0.0
96.0,0.0,853.3333333333334,8.306666666666667,0.0
96.0,0.0,853.3333333333334,8.32,0.0
96.0,0.0,853.3333333333334,8.333333333333334,0.0
96.0,0.0,853.3333333333334,8.346666666666666,0.0
96.0,0.0,853.3333333333334,8.36,0.0
96.0,0.0,853.3333333333334,8.373333333333333,0.0
95.0,0.0,853.3333333333334,8.386666666666667,0.0
95.0,0.0,853.3333333333334,8.4,0.0
95.0,0.0,853.3333333333334,8.413333333333334,0.0
95.0,0.0,853.3333333333334,8.426666666666666,0.0
95.0,0.0,853.3333333333334,8.44,0.0
96.0,0.0,853.3333333333334,8.453333333333333,0.0
96.0,0.0,853.3333333333334,8.466666666666667,0.0
96.0,0.0,853.3333333333334,8.48,0.0
96.0,0.0,853.3333333333334,8.493333333333334,0.0
96.0,0.0,853.3333333333334,8.506666666666666,0.0
96.0,0.0,853.3333333333334,8.52,0.0
96.0,0.0,853.3333333333334,8.533333333333333,0.0
96.0,0.0,853.3333333333334,8.546666666666667,0.0
96.0,0.0,853.3333333333334,8.56,0.0
96.0,0.0,853.3333333333334,8.573333333333334,0.0
96.0,0.0,853.3333333333334,8.586666666666666,0.0
96.0,0.0,853.3333333333334,8.6,0.0
96.0,0.0,853.3333333333334,8.613333333333333,0.0
97.0,0.0,853.3333333333334,8.626666666666667,0.0
98.0,0.0,853.3333333333334,8.64,0.0
100.0,0.0,853.3333333333334,8.653333333333334,0.0
102.0,0.0,853.3333333333334,8.666666666666666,0.0
104.0,0.0,853.3333333333334,8.68,0.0
107.0,0.0,853.3333333333334,8.693333333333333,0.0
108.0,0.0,853.3333333333334,8.706666666666667,0.0
109.0,0.0,853.3333333333334,8.72,0.0
110.0,0.0,853.3333333333334,8.733333333333333,0.0
110.0,1.0,906.6666666666666,8.746666666666666,0.0
110.0,0.0,906.6666666666666,8.76,0.0
110.0,0.0,906.6666666666666,8.773333333333333,0.0
110.0,0.0,906.6666666666666,8.786666666666667,0.0
109.0,0.0,906.6666666666666,8.8,0.0
109.0,0.0,906.6666666666666,8.813333333333333,0.0
109.0,0.0,906.6666666666666,8.826666666666666,0.0
108.0,0.0,906.6666666666666,8.84,0.0
108.0,0.0,906.6666666666666,8.853333333333333,0.0
107.0,0.0,906.6666666666666,8.866666666666667,0.0
106.0,0.0,906.6666666666666,8.88,0.0
105.0,0.0,906.6666666666666,8.893333333333333,0.0
104.0,0.0,906.6666666666666,8.906666666666666,0.0
103.0,0.0,906.6666666666666,8.92,0.0
102.0,0.0,906.6666666666666,8.933333333333334,0.0
101.0,0.0,906.6666666666666,8.946666666666667,0.0
100.0,0.0,906.6666666666666,8.96,0.0
99.0,0.0,906.6666666666666,8.973333333333333,0.0
99.0,0.0,906.6666666666666,8.986666666666666,0.0
99.0,0.0,906.6666666666666,9.0,0.0
99.0,0.0,906.6666666666666,9.013333333333334,0.0
99.0,0.0,906.6666666666666,9.026666666666667,0.0
99.0,0.0,906.6666666666666,9.04,0.0
98.0,0.0,906.6666666666666,9.053333333333333,0.0
98.0,0.0,906.6666666666666,9.066666666666666,0.0
98.0,0.0,906.6666666666666,9.08,0.0
98.0,0.0,906.6666666666666,9.093333333333334,0.0
97.0,0.0,906.6666666666666,9.106666666666667,0.0
97.0,0.0,906.6666666666666,9.12,0.0
97.0,0.0,906.6666666666666,9.133333333333333,0.0
96.0,0.0,906.6666666666666,9.146666666666667,0.0
96.0,0.0,906.6666666666666,9.16,0.0
96.0,0.0,906.6666666666666,9.173333333333334,0.0
96.0,0.0,906.6666666666666,9.186666666666667,0.0
96.0,0.0,906.6666666666666,9.2,0.0
96.0,0.0,906.6666666666666,9.213333333333333,0.0
95.0,0.0,906.6666666666666,9.226666666666667,0.0
95.0,0.0,906.6666666666666,9.24,0.0
95.0,0.0,906.6666666666666,9.253333333333334,0.0
95.0,0.0,906.6666666666666,9.266666666666667,0.0
95.0,0.0,906.6666666666666,9.28,0.0
95.0,0.0,906.6666666666666,9.293333333333333,0.0
95.0,0.0,906.6666666666666,9.306666666666667,0.0
95.0,0.0,906.6666666666666,9.32,0.0
95.0,0.0,906.6666666666666,9.333333333333334,0.0
95.0,0.0,906.6666666666666,9.346666666666666,0.0
95.0,0.0,906.6666666666666,9.36,0.0
95.0,0.0,906.6666666666666,9.373333333333333,0.0
95.0,0.0,906.6666666666666,9.386666666666667,0.0
95.0,0.0,906.6666666666666,9.4,0.0
95.0,0.0,906.6666666666666,9.413333333333334,0.0
95.0,0.0,906.6666666666666,9.426666666666666,0.0
95.0,0.0,906.6666666666666,9.44,0.0
95.0,0.0,906.6666666666666,9.453333333333333,0.0
95.0,0.0,906.6666666666666,9.466666666666667,0.0
95.0,0.0,906.6666666666666,9.48,0.0
95.0,0.0,906.6666666666666,9.493333333333334,0.0
95.0,0.0,906.6666666666666,9.506666666666666,0.0
95.0,0.0,906.6666666666666,9.52,0.0
95.0,0.0,906.6666666666666,9.533333333333333,0.0
95.0,0.0,906.6666666666666,9.546666666666667,0.0
96.0,0.0,906.6666666666666,9.56,0.0
96.0,0.0,906.6666666666666,9.573333333333334,0.0
97.0,0.0,906.6666666666666,9.586666666666666,0.0
98.0,0.0,906.6666666666666,9.6,0.0
100.0,0.0,906.6666666666666,9.613333333333333,0.0
103.0,0.0,906.6666666666666,9.626666666666667,0.0
105.0,0.0,906.6666666666666,9.64,0.0
107.0,0.0,906.6666666666666,9.653333333333334,0.0
109.0,0.0,906.6666666666666,9.666666666666666,0.0
110.0,0.0,906.6666666666666,9.68,0.0
110.0,1.0,946.6666666666666,9.693333333333333,0.0
110.0,0.0,946.6666666666666,9.706666666666667,0.0
110.0,0.0,946.6666666666666,9.72,0.0
110.0,0.0,946.6666666666666,9.733333333333333,0.0
109.0,0.0,946.6666666666666,9.746666666666666,0.0
109.0,0.0,946.6666666666666,9.76,0.0
109.0,0.0,946.6666666666666,9.773333333333333,0.0
108.0,0.0,946.6666666666666,9.786666666666667,0.0
108.0,0.0,946.6666666666666,9.8,0.0
107.0,0.0,946.6666666666666,9.813333333333333,0.0
107.0,0.0,946.6666666666666,9.826666666666666,0.0
106.0,0.0,946.6666666666666,9.84,0.0
105.0,0.0,946.6666666666666,9.853333333333333,0.0
103.0,0.0,946.6666666666666,9.866666666666667,0.0
102.0,0.0,946.6666666666666,9.88,0.0
101.0,0.0,946.6666666666666,9.893333333333333,0.0
100.0,0.0,946.6666666666666,9.906666666666666,0.0
99.0,0.0,946.6666666666666,9.92,0.0
99.0,0.0,946.6666666666666,9.933333333333334,0.0
99.0,0.0,946.6666666666666,9.946666666666667,0.0
99.0,0.0,946.6666666666666,9.96,0.0
99.0,0.0,946.6666666666666,9.973333333333333,0.0
99.0,0.0,946.6666666666666,9.986666666666666,0.0
98.0,0.0,946.6666666666666,10.0,0.0
98.0,0.0,946.6666666666666,10.013333333333334,0.0
98.0,0.0,946.6666666666666,10.026666666666667,0.0
98.0,0.0,946.6666666666666,10.04,0.0
97.0,0.0,946.6666666666666,10.053333333333333,0.0
97.0,0.0,946.6666666666666,10.066666666666666,0.0
97.0,0.0,946.6666666666666,10.08,0.0
96.0,0.0,946.6666666666666,10.093333333333334,0.0
96.0,0.0,946.6666666666666,10.106666666666667,0.0
96.0,0.0,946.6666666666666,10.12,0.0
96.0,0.0,946.6666666666666,10.133333333333333,0.0
95.0,0.0,946.6666666666666,10.146666666666667,0.0
95.0,0.0,946.6666666666666,10.16,0.0
95.0,0.0,946.6666666666666,10.173333333333334,0.0
95.0,0.0,946.6666666666666,10.186666666666667,0.0
95.0,0.0,946.6666666666666,10.2,0.0
95.0,0.0,946.6666666666666,10.213333333333333,0.0
95.0,0.0,946.6666666666666,10.226666666666667,0.0
95.0,0.0,946.6666666666666,10.24,0.0
95.0,0.0,946.6666666666666,10.253333333333334,0.0
95.0,0.0,946.6666666666666,10.266666666666667,0.0
95.0,0.0,946.6666666666666,10.28,0.0
95.0,0.0,946.6666666666666,10.293333333333333,0.0
95.0,0.0,946.6666666666666,10.306666666666667,0.0
95.0,0.0,946.6666666666666,10.32,0.0
95.0,0.0,946.6666666666666,10.333333333333334,0.0
95.0,0.0,946.6666666666666,10.346666666666666,0.0
95.0,0.0,946.6666666666666,10.36,0.0
95.0,0.0,946.6666666666666,10.373333333333333,0.0
95.0,0.0,946.6666666666666,10.386666666666667,0.0
95.0,0.0,946.6666666666666,10.4,0.0
95.0,0.0,946.6666666666666,10.413333333333334,0.0
95.0,0.0,946.6666666666666,10.426666666666666,0.0
95.0,0.0,946.6666666666666,10.44,0.0
95.0,0.0,946.6666666666666,10.453333333333333,0.0
95.0,0.0,946.6666666666666,10.466666666666667,0.0
95.0,0.0,946.6666666666666,10.48,0.0
95.0,0.0,946.6666666666666,10.493333333333334,3.0
95.0,0.0,946.6666666666666,10.506666666666666,0.0
95.0,0.0,946.6666666666666,10.52,0.0
95.0,0.0,946.6666666666666,10.533333333333333,0.0
95.0,0.0,946.6666666666666,10.546666666666667,0.0
95.0,0.0,946.6666666666666,10.56,0.0
96.0,0.0,946.6666666666666,10.573333333333334,0.0
98.0,0.0,946.6666666666666,10.586666666666666,0.0
100.0,0.0,946.6666666666666,10.6,0.0
102.0,0.0,946.6666666666666,10.613333333333333,0.0
104.0,0.0,946.6666666666666,10.626666666666667,0.0
106.0,0.0,946.6666666666666,10.64,0.0
108.0,0.0,946.6666666666666,10.653333333333334,0.0
109.0,0.0,946.6666666666666,10.666666666666666,0.0
109.0,1.0,986.6666666666667,10.68,0.0
109.0,0.0,986.6666666666667,10.693333333333333,0.0
108.0,0.0,986.6666666666667,10.706666666666667,0.0
108.0,0.0,986.6666666666667,10.72,0.0
108.0,0.0,986.6666666666667,10.733333333333333,0.0
107.0,0.0,986.6666666666667,10.746666666666666,0.0
107.0,0.0,986.6666666666667,10.76,0.0
106.0,0.0,986.6666666666667,10.773333333333333,0.0
106.0,0.0,986.6666666666667,10.786666666666667,0.0
105.0,0.0,986.6666666666667,10.8,0.0
105.0,0.0,986.6666666666667,10.813333333333333,0.0
104.0,0.0,986.6666666666667,10.826666666666666,0.0
103.0,0.0,986.6666666666667,10.84,0.0
101.0,0.0,986.6666666666667,10.853333333333333,0.0
100.0,0.0,986.6666666666667,10.866666666666667,0.0
99.0,0.0,986.6666666666667,10.88,0.0
99.0,0.0,986.6666666666667,10.893333333333333,0.0
98.0,0.0,986.6666666666667,10.906666666666666,0.0
98.0,0.0,986.6666666666667,10.92,0.0
98.0,0.0,986.6666666666667,10.933333333333334,0.0
98.0,0.0,986.6666666666667,10.946666666666667,0.0
98.0,0.0,986.6666666666667,10.96,0.0
97.0,0.0,986.6666666666667,10.973333333333333,0.0
97.0,0.0,986.6666666666667,10.986666666666666,0.0
97.0,0.0,986.6666666666667,11.0,0.0
97.0,0.0,986.6666666666667,11.013333333333334,0.0
97.0,0.0,986.6666666666667,11.026666666666667,0.0
96.0,0.0,986.6666666666667,11.04,0.0
96.0,0.0,986.6666666666667,11.053333333333333,0.0
96.0,0.0,986.6666666666667,11.066666666666666,0.0
96.0,0.0,986.6666666666667,11.08,0.0
96.0,0.0,986.6666666666667,11.093333333333334,0.0
95.0,0.0,986.6666666666667,11.106666666666667,0.0
95.0,0.0,986.6666666666667,11.12,0.0
95.0,0.0,986.6666666666667,11.133333333333333,0.0
95.0,0.0,986.6666666666667,11.146666666666667,0.0
95.0,0.0,986.6666666666667,11.16,0.0
95.0,0.0,986.6666666666667,11.173333333333334,0.0
95.0,0.0,986.6666666666667,11.186666666666667,0.0
95.0,0.0,986.6666666666667,11.2,0.0
95.0,0.0,986.6666666666667,11.213333333333333,0.0
95.0,0.0,986.6666666666667,11.226666666666667,0.0
95.0,0.0,986.6666666666667,11.24,0.0
95.0,0.0,986.6666666666667,11.253333333333334,0.0
95.0,0.0,986.6666666666667,11.266666666666667,0.0
95.0,0.0,986.6666666666667,11.28,0.0
95.0,0.0,986.6666666666667,11.293333333333333,0.0
95.0,0.0,986.6666666666667,11.306666666666667,0.0
95.0,0.0,986.6666666666667,11.32,0.0
95.0,0.0,986.6666666666667,11.333333333333334,0.0
95.0,0.0,986.6666666666667,11.346666666666666,0.0
95.0,0.0,986.6666666666667,11.36,0.0
95.0,0.0,986.6666666666667,11.373333333333333,0.0
96.0,0.0,986.6666666666667,11.386666666666667,0.0
96.0,0.0,986.6666666666667,11.4,0.0
96.0,0.0,986.6666666666667,11.413333333333334,0.0
96.0,0.0,986.6666666666667,11.426666666666666,0.0
96.0,0.0,986.6666666666667,11.44,0.0
96.0,0.0,986.6666666666667,11.453333333333333,0.0
96.0,0.0,986.6666666666667,11.466666666666667,0.0
96.0,0.0,986.6666666666667,11.48,0.0
96.0,0.0,986.6666666666667,11.493333333333334,0.0
96.0,0.0,986.6666666666667,11.506666666666666,0.0
97.0,0.0,986.6666666666667,11.52,0.0
98.0,0.0,986.6666666666667,11.533333333333333,0.0
100.0,0.0,986.6666666666667,11.546666666666667,0.0
102.0,0.0,986.6666666666667,11.56,0.0
104.0,0.0,986.6666666666667,11.573333333333334,0.0
106.0,0.0,986.6666666666667,11.586666666666666,0.0
108.0,0.0,986.6666666666667,11.6,0.0
109.0,0.0,986.6666666666667,11.613333333333333,0.0
110.0,0.0,986.6666666666667,11.626666666666667,0.0
110.0,1.0,960.0,11.64,0.0
110.0,0.0,960.0,11.653333333333334,0.0
109.0,0.0,960.0,11.666666666666666,0.0
109.0,0.0,960.0,11.68,0.0
108.0,0.0,960.0,11.693333333333333,0.0
108.0,0.0,960.0,11.706666666666667,0.0
108.0,0.0,960.0,11.72,0.0
107.0,0.0,960.0,11.733333333333333,0.0
107.0,0.0,960.0,11.746666666666666,0.0
106.0,0.0,960.0,11.76,0.0
105.0,0.0,960.0,11.773333333333333,0.0
104.0,0.0,960.0,11.786666666666667,0.0
103.0,0.0,960.0,11.8,0.0
102.0,0.0,960.0,11.813333333333333,0.0
101.0,0.0,960.0,11.826666666666666,0.0
101.0,0.0,960.0,11.84,0.0
100.0,0.0,960.0,11.853333333333333,0.0
100.0,0.0,960.0,11.866666666666667,0.0
100.0,0.0,960.0,11.88,0.0
100.0,0.0,960.0,11.893333333333333,0.0
99.0,0.0,960.0,11.906666666666666,0.0
99.0,0.0,960.0,11.92,0.0
99.0,0.0,960.0,11.933333333333334,0.0
99.0,0.0,960.0,11.946666666666667,0.0
99.0,0.0,960.0,11.96,0.0
98.0,0.0,960.0,11.973333333333333,0.0
98.0,0.0,960.0,11.986666666666666,0.0
98.0,0.0,960.0,12.0,0.0
98.0,0.0,960.0,12.013333333333334,0.0
97.0,0.0,960.0,12.026666666666667,0.0
97.0,0.0,960.0,12.04,0.0
97.0,0.0,960.0,12.053333333333333,0.0
97.0,0.0,960.0,12.066666666666666,0.0
97.0,0.0,960.0,12.08,0.0
96.0,0.0,960.0,12.093333333333334,0.0
96.0,0.0,960.0,12.106666666666667,0.0
96.0,0.0,960.0,12.12,0.0
96.0,0.0,960.0,12.133333333333333,0.0
96.0,0.0,960.0,12.146666666666667,0.0
96.0,0.0,960.0,12.16,0.0
96.0,0.0,960.0,12.173333333333334,0.0
96.0,0.0,960.0,12.186666666666667,0.0
96.0,0.0,960.0,12.2,0.0
96.0,0.0,960.0,12.213333333333333,0.0
96.0,0.0,960.0,12.226666666666667,0.0
96.0,0.0,960.0,12.24,0.0
96.0,0.0,960.0,12.253333333333334,0.0
96.0,0.0,960.0,12.266666666666667,0.0
96.0,0.0,960.0,12.28,0.0
96.0,0.0,960.0,12.293333333333333,0.0
96.0,0.0,960.0,12.306666666666667,0.0
96.0,0.0,960.0,12.32,0.0
96.0,0.0,960.0,12.333333333333334,0.0
96.0,0.0,960.0,12.346666666666666,0.0
96.0,0.0,960.0,12.36,0.0
96.0,0.0,960.0,12.373333333333333,0.0
96.0,0.0,960.0,12.386666666666667,0.0
96.0,0.0,960.0,12.4,0.0
96.0,0.0,960.0,12.413333333333334,0.0
96.0,0.0,960.0,12.426666666666666,0.0
97.0,0.0,960.0,12.44,0.0
97.0,0.0,960.0,12.453333333333333,0.0
98.0,0.0,960.0,12.466666666666667,0.0
99.0,0.0,960.0,12.48,0.0
101.0,0.0,960.0,12.493333333333334,0.0
103.0,0.0,960.0,12.506666666666666,0.0
105.0,0.0,960.0,12.52,0.0
107.0,0.0,960.0,12.533333333333333,0.0
109.0,0.0,960.0,12.546666666666667,0.0
110.0,0.0,960.0,12.56,0.0
110.0,1.0,933.3333333333334,12.573333333333334,0.0
110.0,0.0,933.3333333333334,12.586666666666666,0.0
110.0,0.0,933.3333333333334,12.6,0.0
110.0,0.0,933.3333333333334,12.613333333333333,0.0
110.0,0.0,933.3333333333334,12.626666666666667,0.0
109.0,0.0,933.3333333333334,12.64,0.0
109.0,0.0,933.3333333333334,12.653333333333334,0.0
109.0,0.0,933.3333333333334,12.666666666666666,0.0
108.0,0.0,933.3333333333334,12.68,0.0
108.0,0.0,933.3333333333334,12.693333333333333,0.0
107.0,0.0,933.3333333333334,12.706666666666667,0.0
106.0,0.0,933.3333333333334,12.72,0.0
105.0,0.0,933.3333333333334,12.733333333333333,0.0
104.0,0.0,933.3333333333334,12.746666666666666,0.0
103.0,0.0,933.3333333333334,12.76,0.0
102.0,0.0,933.3333333333334,12.773333333333333,0.0
101.0,0.0,933.3333333333334,12.786666666666667,0.0
100.0,0.0,933.3333333333334,12.8,0.0
100.0,0.0,933.3333333333334,12.813333333333333,0.0
99.0,0.0,933.3333333333334,12.826666666666666,0.0
99.0,0.0,933.3333333333334,12.84,0.0
99.0,0.0,933.3333333333334,12.853333333333333,0.0
99.0,0.0,933.3333333333334,12.866666666666667,0.0
99.0,0.0,933.3333333333334,12.88,0.0
98.0,0.0,933.3333333333334,12.893333333333333,0.0
98.0,0.0,933.3333333333334,12.906666666666666,0.0
98.0,0.0,933.3333333333334,12.92,0.0
98.0,0.0,933.3333333333334,12.933333333333334,0.0
97.0,0.0,933.3333333333334,12.946666666666667,0.0
97.0,0.0,933.3333333333334,12.96,0.0
97.0,0.0,933.3333333333334,12.973333333333333,0.0
96.0,0.0,933.3333333333334,12.986666666666666,0.0
96.0,0.0,933.3333333333334,13.0,0.0
96.0,0.0,933.3333333333334,13.013333333333334,0.0
96.0,0.0,933.3333333333334,13.026666666666667,0.0
96.0,0.0,933.3333333333334,13.04,0.0
95.0,0.0,933.3333333333334,13.053333333333333,0.0
95.0,0.0,933.3333333333334,13.066666666666666,0.0
95.0,0.0,933.3333333333334,13.08,0.0
95.0,0.0,933.3333333333334,13.093333333333334,0.0
95.0,0.0,933.3333333333334,13.106666666666667,0.0
95.0,0.0,933.3333333333334,13.12,0.0
95.0,0.0,933.3333333333334,13.133333333333333,0.0
95.0,0.0,933.3333333333334,13.146666666666667,0.0
95.0,0.0,933.3333333333334,13.16,0.0
95.0,0.0,933.3333333333334,13.173333333333334,0.0
95.0,0.0,933.3333333333334,13.186666666666667,0.0
95.0,0.0,933.3333333333334,13.2,0.0
95.0,0.0,933.3333333333334,13.213333333333333,0.0
95.0,0.0,933.3333333333334,13.226666666666667,0.0
95.0,0.0,933.3333333333334,13.24,0.0
95.0,0.0,933.3333333333334,13.253333333333334,0.0
95.0,0.0,933.3333333333334,13.266666666666667,0.0
95.0,0.0,933.3333333333334,13.28,0.0
95.0,0.0,933.3333333333334,13.293333333333333,0.0
95.0,0.0,933.3333333333334,13.306666666666667,0.0
95.0,0.0,933.3333333333334,13.32,0.0
95.0,0.0,933.3333333333334,13.333333333333334,0.0
95.0,0.0,933.3333333333334,13.346666666666666,0.0
95.0,0.0,933.3333333333334,13.36,0.0
95.0,0.0,933.3333333333334,13.373333333333333,0.0
95.0,0.0,933.3333333333334,13.386666666666667,0.0
95.0,0.0,933.3333333333334,13.4,0.0
95.0,0.0,933.3333333333334,13.413333333333334,0.0
95.0,0.0,933.3333333333334,13.426666666666666,0.0
96.0,0.0,933.3333333333334,13.44,0.0
97.0,0.0,933.3333333333334,13.453333333333333,0.0
98.0,0.0,933.3333333333334,13.466666666666667,0.0
101.0,0.0,933.3333333333334,13.48,0.0
103.0,0.0,933.3333333333334,13.493333333333334,0.0
105.0,0.0,933.3333333333334,13.506666666666666,0.0
107.0,0.0,933.3333333333334,13.52,0.0
108.0,0.0,933.3333333333334,13.533333333333333,0.0
109.0,0.0,933.3333333333334,13.546666666666667,0.0
109.0,1.0,986.6666666666667,13.56,0.0
109.0,0.0,986.6666666666667,13.573333333333334,0.0
109.0,0.0,986.6666666666667,13.586666666666666,0.0
109.0,0.0,986.6666666666667,13.6,0.0
108.0,0.0,986.6666666666667,13.613333333333333,0.0
108.0,0.0,986.6666666666667,13.626666666666667,0.0
108.0,0.0,986.6666666666667,13.64,0.0
107.0,0.0,986.6666666666667,13.653333333333334,0.0
107.0,0.0,986.6666666666667,13.666666666666666,0.0
106.0,0.0,986.6666666666667,13.68,0.0
105.0,0.0,986.6666666666667,13.693333333333333,0.0
105.0,0.0,986.6666666666667,13.706666666666667,0.0
104.0,0.0,986.6666666666667,13.72,0.0
102.0,0.0,986.6666666666667,13.733333333333333,0.0
101.0,0.0,986.6666666666667,13.746666666666666,0.0
100.0,0.0,986.6666666666667,13.76,0.0
100.0,0.0,986.6666666666667,13.773333333333333,0.0
99.0,0.0,986.6666666666667,13.786666666666667,0.0
99.0,0.0,986.6666666666667,13.8,0.0
99.0,0.0,986.6666666666667,13.813333333333333,0.0
99.0,0.0,986.6666666666667,13.826666666666666,0.0
99.0,0.0,986.6666666666667,13.84,0.0
98.0,0.0,986.6666666666667,13.853333333333333,0.0
98.0,0.0,986.6666666666667,13.866666666666667,0.0
98.0,0.0,986.6666666666667,13.88,0.0
98.0,0.0,986.6666666666667,13.893333333333333,0.0
98.0,0.0,986.6666666666667,13.906666666666666,0.0
97.0,0.0,986.6666666666667,13.92,0.0
97.0,0.0,986.6666666666667,13.933333333333334,0.0
97.0,0.0,986.6666666666667,13.946666666666667,0.0
97.0,0.0,986.6666666666667,13.96,0.0
97.0,0.0,986.6666666666667,13.973333333333333,0.0
96.0,0.0,986.6666666666667,13.986666666666666,0.0
96.0,0.0,986.6666666666667,14.0,0.0
96.0,0.0,986.6666666666667,14.013333333333334,0.0
96.0,0.0,986.6666666666667,14.026666666666667,0.0
96.0,0.0,986.6666666666667,14.04,0.0
96.0,0.0,986.6666666666667,14.053333333333333,0.0
96.0,0.0,986.6666666666667,14.066666666666666,0.0
96.0,0.0,986.6666666666667,14.08,0.0
96.0,0.0,986.6666666666667,14.093333333333334,0.0
96.0,0.0,986.6666666666667,14.106666666666667,0.0
96.0,0.0,986.6666666666667,14.12,0.0
96.0,0.0,986.6666666666667,14.133333333333333,0.0
96.0,0.0,986.6666666666667,14.146666666666667,0.0
96.0,0.0,986.6666666666667,14.16,0.0
96.0,0.0,986.6666666666667,14.173333333333334,0.0
96.0,0.0,986.6666666666667,14.186666666666667,0.0
96.0,0.0,986.6666666666667,14.2,0.0
96.0,0.0,986.6666666666667,14.213333333333333,0.0
96.0,0.0,986.6666666666667,14.226666666666667,0.0
96.0,0.0,986.6666666666667,14.24,0.0
96.0,0.0,986.6666666666667,14.253333333333334,0.0
96.0,0.0,986.6666666666667,14.266666666666667,0.0
96.0,0.0,986.6666666666667,14.28,0.0
96.0,0.0,986.6666666666667,14.293333333333333,0.0
96.0,0.0,986.6666666666667,14.306666666666667,0.0
96.0,0.0,986.6666666666667,14.32,0.0
96.0,0.0,986.6666666666667,14.333333333333334,0.0
96.0,0.0,986.6666666666667,14.346666666666666,0.0
97.0,0.0,986.6666666666667,14.36,0.0
98.0,0.0,986.6666666666667,14.373333333333333,0.0
99.0,0.0,986.6666666666667,14.386666666666667,0.0
101.0,0.0,986.6666666666667,14.4,0.0
103.0,0.0,986.6666666666667,14.413333333333334,0.0
106.0,0.0,986.6666666666667,14.426666666666666,0.0
107.0,0.0,986.6666666666667,14.44,0.0
109.0,0.0,986.6666666666667,14.453333333333333,0.0
110.0,0.0,986.6666666666667,14.466666666666667,0.0
110.0,1.0,920.0,14.48,0.0
110.0,0.0,920.0,14.493333333333334,0.0
110.0,0.0,920.0,14.506666666666666,0.0
109.0,0.0,920.0,14.52,0.0
109.0,0.0,920.0,14.533333333333333,0.0
108.0,0.0,920.0,14.546666666666667,0.0
108.0,0.0,920.0,14.56,0.0
108.0,0.0,920.0,14.573333333333334,0.0
107.0,0.0,920.0,14.586666666666666,0.0
107.0,0.0,920.0,14.6,0.0
106.0,0.0,920.0,14.613333333333333,0.0
105.0,0.0,920.0,14.626666666666667,0.0
104.0,0.0,920.0,14.64,0.0
103.0,0.0,920.0,14.653333333333334,0.0
102.0,0.0,920.0,14.666666666666666,0.0
101.0,0.0,920.0,14.68,0.0
100.0,0.0,920.0,14.693333333333333,0.0
100.0,0.0,920.0,14.706666666666667,0.0
99.0,0.0,920.0,14.72,0.0
99.0,0.0,920.0,14.733333333333333,0.0
99.0,0.0,920.0,14.746666666666666,0.0
99.0,0.0,920.0,14.76,0.0
99.0,0.0,920.0,14.773333333333333,0.0
99.0,0.0,920.0,14.786666666666667,0.0
98.0,0.0,920.0,14.8,0.0
98.0,0.0,920.0,14.813333333333333,0.0
98.0,0.0,920.0,14.826666666666666,0.0
98.0,0.0,920.0,14.84,0.0
98.0,0.0,920.0,14.853333333333333,0.0
97.0,0.0,920.0,14.866666666666667,0.0
97.0,0.0,920.0,14.88,0.0
97.0,0.0,920.0,14.893333333333333,0.0
97.0,0.0,920.0,14.906666666666666,0.0
96.0,0.0,920.0,14.92,0.0
96.0,0.0,920.0,14.933333333333334,0.0
96.0,0.0,920.0,14.946666666666667,0.0
96.0,0.0,920.0,14.96,0.0
96.0,0.0,920.0,14.973333333333333,0.0
96.0,0.0,920.0,14.986666666666666,0.0
96.0,0.0,920.0,15.0,0.0
96.0,0.0,920.0,15.013333333333334,0.0
96.0,0.0,920.0,15.026666666666667,0.0
96.0,0.0,920.0,15.04,0.0
96.0,0.0,920.0,15.053333333333333,0.0
96.0,0.0,920.0,15.066666666666666,0.0
96.0,0.0,920.0,15.08,0.0
96.0,0.0,920.0,15.093333333333334,0.0
96.0,0.0,920.0,15.106666666666667,0.0
96.0,0.0,920.0,15.12,0.0
96.0,0.0,920.0,15.133333333333333,0.0
96.0,0.0,920.0,15.146666666666667,0.0
96.0,0.0,920.0,15.16,0.0
96.0,0.0,920.0,15.173333333333334,0.0
96.0,0.0,920.0,15.186666666666667,0.0
96.0,0.0,920.0,15.2,0.0
96.0,0.0,920.0,15.213333333333333,0.0
96.0,0.0,920.0,15.226666666666667,4.0
96.0,0.0,920.0,15.24,0.0
96.0,0.0,920.0,15.253333333333334,0.0
96.0,0.0,920.0,15.266666666666667,0.0
96.0,0.0,920.0,15.28,0.0
96.0,0.0,920.0,15.293333333333333,0.0
96.0,0.0,920.0,15.306666666666667,0.0
97.0,0.0,920.0,15.32,0.0
98.0,0.0,920.0,15.333333333333334,0.0
100.0,0.0,920.0,15.346666666666666,0.0
103.0,0.0,920.0,15.36,0.0
105.0,0.0,920.0,15.373333333333333,0.0
107.0,0.0,920.0,15.386666666666667,0.0
109.0,0.0,920.0,15.4,0.0
110.0,0.0,920.0,15.413333333333334,0.0
110.0,1.0,946.6666666666666,15.426666666666666,0.0
110.0,0.0,946.6666666666666,15.44,0.0
110.0,0.0,946.6666666666666,15.453333333333333,0.0
110.0,0.0,946.6666666666666,15.466666666666667,0.0
109.0,0.0,946.6666666666666,15.48,0.0
109.0,0.0,946.6666666666666,15.493333333333334,0.0
109.0,0.0,946.6666666666666,15.506666666666666,0.0
108.0,0.0,946.6666666666666,15.52,0.0
108.0,0.0,946.6666666666666,15.533333333333333,0.0
108.0,0.0,946.6666666666666,15.546666666666667,0.0
107.0,0.0,946.6666666666666,15.56,0.0
106.0,0.0,946.6666666666666,15.573333333333334,0.0
105.0,0.0,946.6666666666666,15.586666666666666,0.0
104.0,0.0,946.6666666666666,15.6,0.0
103.0,0.0,946.6666666666666,15.613333333333333,0.0
102.0,0.0,946.6666666666666,15.626666666666667,0.0
101.0,0.0,946.6666666666666,15.64,0.0
100.0,0.0,946.6666666666666,15.653333333333334,0.0
99.0,0.0,946.6666666666666,15.666666666666666,0.0
99.0,0.0,946.6666666666666,15.68,0.0
99.0,0.0,946.6666666666666,15.693333333333333,0.0
99.0,0.0,946.6666666666666,15.706666666666667,0.0
99.0,0.0,946.6666666666666,15.72,0.0
98.0,0.0,946.6666666666666,15.733333333333333,0.0
98.0,0.0,946.6666666666666,15.746666666666666,0.0
98.0,0.0,946.6666666666666,15.76,0.0
98.0,0.0,946.6666666666666,15.773333333333333,0.0
98.0,0.0,946.6666666666666,15.786666666666667,0.0
97.0,0.0,946.6666666666666,15.8,0.0
97.0,0.0,946.6666666666666,15.813333333333333,0.0
97.0,0.0,946.6666666666666,15.826666666666666,0.0
96.0,0.0,946.6666666666666,15.84,0.0
96.0,0.0,946.6666666666666,15.853333333333333,0.0
96.0,0.0,946.6666666666666,15.866666666666667,0.0
95.0,0.0,946.6666666666666,15.88,0.0
95.0,0.0,946.6666666666666,15.893333333333333,0.0
95.0,0.0,946.6666666666666,15.906666666666666,0.0
95.0,0.0,946.6666666666666,15.92,0.0
95.0,0.0,946.6666666666666,15.933333333333334,0.0
95.0,0.0,946.6666666666666,15.946666666666667,0.0
95.0,0.0,946.6666666666666,15.96,0.0
95.0,0.0,946.6666666666666,15.973333333333333,0.0
95.0,0.0,946.6666666666666,15.986666666666666,0.0
95.0,0.0,946.6666666666666,16.0,0.0
95.0,0.0,946.6666666666666,16.013333333333332,0.0
95.0,0.0,946.6666666666666,16.026666666666667,0.0
95.0,0.0,946.6666666666666,16.04,0.0
95.0,0.0,946.6666666666666,16.053333333333335,0.0
95.0,0.0,946.6666666666666,16.066666666666666,0.0
95.0,0.0,946.6666666666666,16.08,0.0
95.0,0.0,946.6666666666666,16.093333333333334,0.0
95.0,0.0,946.6666666666666,16.106666666666666,0.0
95.0,0.0,946.6666666666666,16.12,0.0
94.0,0.0,946.6666666666666,16.133333333333333,0.0
94.0,0.0,946.6666666666666,16.14666666666667,0.0
94.0,0.0,946.6666666666666,16.16,0.0
94.0,0.0,946.6666666666666,16.173333333333332,0.0
94.0,0.0,946.6666666666666,16.186666666666667,0.0
94.0,0.0,946.6666666666666,16.2,0.0
94.0,0.0,946.6666666666666,16.213333333333335,0.0
95.0,0.0,946.6666666666666,16.226666666666667,0.0
96.0,0.0,946.6666666666666,16.24,0.0
97.0,0.0,946.6666666666666,16.253333333333334,0.0
99.0,0.0,946.6666666666666,16.266666666666666,0.0
102.0,0.0,946.6666666666666,16.28,0.0
104.0,0.0,946.6666666666666,16.293333333333333,0.0
106.0,0.0,946.6666666666666,16.30666666666667,0.0
107.0,0.0,946.6666666666666,16.32,0.0
108.0,0.0,946.6666666666666,16.333333333333332,0.0
108.0,1.0,920.0,16.346666666666668,0.0
108.0,0.0,920.0,16.36,0.0
108.0,0.0,920.0,16.373333333333335,0.0
107.0,0.0,920.0,16.386666666666667,0.0
107.0,0.0,920.0,16.4,0.0
107.0,0.0,920.0,16.413333333333334,0.0
106.0,0.0,920.0,16.426666666666666,0.0
106.0,0.0,920.0,16.44,0.0
105.0,0.0,920.0,16.453333333333333,0.0
105.0,0.0,920.0,16.466666666666665,0.0
104.0,0.0,920.0,16.48,0.0
103.0,0.0,920.0,16.493333333333332,0.0
102.0,0.0,920.0,16.506666666666668,0.0
101.0,0.0,920.0,16.52,0.0
100.0,0.0,920.0,16.533333333333335,0.0
99.0,0.0,920.0,16.546666666666667,0.0
99.0,0.0,920.0,16.56,0.0
98.0,0.0,920.0,16.573333333333334,0.0
98.0,0.0,920.0,16.586666666666666,0.0
98.0,0.0,920.0,16.6,0.0
98.0,0.0,920.0,16.613333333333333,0.0
98.0,0.0,920.0,16.626666666666665,0.0
98.0,0.0,920.0,16.64,0.0
98.0,0.0,920.0,16.653333333333332,0.0
98.0,0.0,920.0,16.666666666666668,0.0
97.0,0.0,920.0,16.68,0.0
97.0,0.0,920.0,16.69333333333333,0.0
97.0,0.0,920.0,16.706666666666667,0.0
97.0,0.0,920.0,16.72,0.0
96.0,0.0,920.0,16.733333333333334,0.0
96.0,0.0,920.0,16.746666666666666,0.0
96.0,0.0,920.0,16.76,0.0
96.0,0.0,920.0,16.773333333333333,0.0
96.0,0.0,920.0,16.786666666666665,0.0
96.0,0.0,920.0,16.8,0.0
96.0,0.0,920.0,16.813333333333333,0.0
96.0,0.0,920.0,16.826666666666668,0.0
96.0,0.0,920.0,16.84,0.0
96.0,0.0,920.0,16.85333333333333,0.0
96.0,0.0,920.0,16.866666666666667,0.0
96.0,0.0,920.0,16.88,0.0
96.0,0.0,920.0,16.893333333333334,0.0
96.0,0.0,920.0,16.906666666666666,0.0
96.0,0.0,920.0,16.92,0.0
96.0,0.0,920.0,16.933333333333334,0.0
96.0,0.0,920.0,16.946666666666665,0.0
96.0,0.0,920.0,16.96,0.0
96.0,0.0,920.0,16.973333333333333,0.0
96.0,0.0,920.0,16.986666666666668,0.0
96.0,0.0,920.0,17.0,0.0
96.0,0.0,920.0,17.013333333333332,0.0
96.0,0.0,920.0,17.026666666666667,0.0
96.0,0.0,920.0,17.04,0.0
96.0,0.0,920.0,17.053333333333335,0.0
96.0,0.0,920.0,17.066666666666666,0.0
96.0,0.0,920.0,17.08,0.0
96.0,0.0,920.0,17.093333333333334,0.0
96.0,0.0,920.0,17.106666666666666,0.0
97.0,0.0,920.0,17.12,0.0
98.0,0.0,920.0,17.133333333333333,0.0
99.0,0.0,920.0,17.14666666666667,0.0
101.0,0.0,920.0,17.16,0.0
103.0,0.0,920.0,17.173333333333332,0.0
106.0,0.0,920.0,17.186666666666667,0.0
108.0,0.0,920.0,17.2,0.0
109.0,0.0,920.0,17.213333333333335,0.0
110.0,0.0,920.0,17.226666666666667,0.0
110.0,1.0,893.3333333333333,17.24,0.0
110.0,0.0,893.3333333333333,17.253333333333334,0.0
110.0,0.0,893.3333333333333,17.266666666666666,0.0
110.0,0.0,893.3333333333333,17.28,0.0
109.0,0.0,893.3333333333333,17.293333333333333,0.0
109.0,0.0,893.3333333333333,17.30666666666667,0.0
109.0,0.0,893.3333333333333,17.32,0.0
108.0,0.0,893.3333333333333,17.333333333333332,0.0
108.0,0.0,893.3333333333333,17.346666666666668,0.0
108.0,0.0,893.3333333333333,17.36,0.0
107.0,0.0,893.3333333333333,17.373333333333335,0.0
106.0,0.0,893.3333333333333,17.386666666666667,0.0
105.0,0.0,893.3333333333333,17.4,0.0
103.0,0.0,893.3333333333333,17.413333333333334,0.0
102.0,0.0,893.3333333333333,17.426666666666666,0.0
101.0,0.0,893.3333333333333,17.44,0.0
100.0,0.0,893.3333333333333,17.453333333333333,0.0
100.0,0.0,893.3333333333333,17.466666666666665,0.0
100.0,0.0,893.3333333333333,17.48,0.0
99.0,0.0,893.3333333333333,17.493333333333332,0.0
99.0,0.0,893.3333333333333,17.506666666666668,0.0
99.0,0.0,893.3333333333333,17.52,0.0
99.0,0.0,893.3333333333333,17.533333333333335,0.0
99.0,0.0,893.3333333333333,17.546666666666667,0.0
99.0,0.0,893.3333333333333,17.56,0.0
98.0,0.0,893.3333333333333,17.573333333333334,0.0
98.0,0.0,893.3333333333333,17.586666666666666,0.0
98.0,0.0,893.3333333333333,17.6,0.0
97.0,0.0,893.3333333333333,17.613333333333333,0.0
97.0,0.0,893.3333333333333,17.626666666666665,0.0
97.0,0.0,893.3333333333333,17.64,0.0
97.0,0.0,893.3333333333333,17.653333333333332,0.0
97.0,0.0,893.3333333333333,17.666666666666668,0.0
96.0,0.0,893.3333333333333,17.68,0.0
96.0,0.0,893.3333333333333,17.69333333333333,0.0
96.0,0.0,893.3333333333333,17.706666666666667,0.0
96.0,0.0,893.3333333333333,17.72,0.0
96.0,0.0,893.3333333333333,17.733333333333334,0.0
96.0,0.0,893.3333333333333,17.746666666666666,0.0
96.0,0.0,893.3333333333333,17.76,0.0
96.0,0.0,893.3333333333333,17.773333333333333,0.0
96.0,0.0,893.3333333333333,17.786666666666665,0.0
96.0,0.0,893.3333333333333,17.8,0.0
95.0,0.0,893.3333333333333,17.813333333333333,0.0
95.0,0.0,893.3333333333333,17.826666666666668,0.0
95.0,0.0,893.3333333333333,17.84,0.0
95.0,0.0,893.3333333333333,17.85333333333333,0.0
95.0,0.0,893.3333333333333,17.866666666666667,0.0
95.0,0.0,893.3333333333333,17.88,0.0
95.0,0.0,893.3333333333333,17.893333333333334,0.0
95.0,0.0,893.3333333333333,17.906666666666666,0.0
95.0,0.0,893.3333333333333,17.92,0.0
95.0,0.0,893.3333333333333,17.933333333333334,0.0
95.0,0.0,893.3333333333333,17.946666666666665,0.0
95.0,0.0,893.3333333333333,17.96,0.0
95.0,0.0,893.3333333333333,17.973333333333333,0.0
95.0,0.0,893.3333333333333,17.986666666666668,0.0
95.0,0.0,893.3333333333333,18.0,0.0
96.0,0.0,893.3333333333333,18.013333333333332,0.0
96.0,0.0,893.3333333333333,18.026666666666667,0.0
97.0,0.0,893.3333333333333,18.04,0.0
98.0,0.0,893.3333333333333,18.053333333333335,0.0
100.0,0.0,893.3333333333333,18.066666666666666,0.0
103.0,0.0,893.3333333333333,18.08,0.0
105.0,0.0,893.3333333333333,18.093333333333334,0.0
107.0,0.0,893.3333333333333,18.106666666666666,0.0
108.0,0.0,893.3333333333333,18.12,0.0
109.0,0.0,893.3333333333333,18.133333333333333,0.0
109.0,1.0,906.6666666666666,18.14666666666667,0.0
109.0,0.0,906.6666666666666,18.16,0.0
109.0,0.0,906.6666666666666,18.173333333333332,0.0
109.0,0.0,906.6666666666666,18.186666666666667,0.0
109.0,0.0,906.6666666666666,18.2,0.0
108.0,0.0,906.6666666666666,18.213333333333335,0.0
108.0,0.0,906.6666666666666,18.226666666666667,0.0
108.0,0.0,906.6666666666666,18.24,0.0
107.0,0.0,906.6666666666666,18.253333333333334,0.0
107.0,0.0,906.6666666666666,18.266666666666666,0.0
106.0,0.0,906.6666666666666,18.28,0.0
105.0,0.0,906.6666666666666,18.293333333333333,0.0
104.0,0.0,906.6666666666666,18.30666666666667,0.0
103.0,0.0,906.6666666666666,18.32,0.0
101.0,0.0,906.6666666666666,18.333333333333332,0.0
100.0,0.0,906.6666666666666,18.346666666666668,0.0
99.0,0.0,906.6666666666666,18.36,0.0
99.0,0.0,906.6666666666666,18.373333333333335,0.0
98.0,0.0,906.6666666666666,18.386666666666667,0.0
98.0,0.0,906.6666666666666,18.4,0.0
98.0,0.0,906.6666666666666,18.413333333333334,0.0
98.0,0.0,906.6666666666666,18.426666666666666,0.0
98.0,0.0,906.6666666666666,18.44,0.0
98.0,0.0,906.6666666666666,18.453333333333333,0.0
97.0,0.0,906.6666666666666,18.466666666666665,0.0
97.0,0.0,906.6666666666666,18.48,0.0
97.0,0.0,906.6666666666666,18.493333333333332,0.0
97.0,0.0,906.6666666666666,18.506666666666668,0.0
97.0,0.0,906.6666666666666,18.52,0.0
96.0,0.0,906.6666666666666,18.533333333333335,0.0
96.0,0.0,906.6666666666666,18.546666666666667,0.0
96.0,0.0,906.6666666666666,18.56,0.0
95.0,0.0,906.6666666666666,18.573333333333334,0.0
95.0,0.0,906.6666666666666,18.586666666666666,0.0
95.0,0.0,906.6666666666666,18.6,0.0
95.0,0.0,906.6666666666666,18.613333333333333,0.0
95.0,0.0,906.6666666666666,18.626666666666665,0.0
95.0,0.0,906.6666666666666,18.64,0.0
95.0,0.0,906.6666666666666,18.653333333333332,0.0
95.0,0.0,906.6666666666666,18.666666666666668,0.0
95.0,0.0,906.6666666666666,18.68,0.0
94.0,0.0,906.6666666666666,18.69333333333333,0.0
94.0,0.0,906.6666666666666,18.706666666666667,0.0
95.0,0.0,906.6666666666666,18.72,0.0
95.0,0.0,906.6666666666666,18.733333333333334,0.0
95.0,0.0,906.6666666666666,18.746666666666666,0.0
95.0,0.0,906.6666666666666,18.76,0.0
95.0,0.0,906.6666666666666,18.773333333333333,0.0
95.0,0.0,906.6666666666666,18.786666666666665,0.0
95.0,0.0,906.6666666666666,18.8,0.0
95.0,0.0,906.6666666666666,18.813333333333333,0.0
95.0,0.0,906.6666666666666,18.826666666666668,0.0
95.0,0.0,906.6666666666666,18.84,0.0
95.0,0.0,906.6666666666666,18.85333333333333,0.0
95.0,0.0,906.6666666666666,18.866666666666667,0.0
95.0,0.0,906.6666666666666,18.88,0.0
95.0,0.0,906.6666666666666,18.893333333333334,0.0
95.0,0.0,906.6666666666666,18.906666666666666,0.0
95.0,0.0,906.6666666666666,18.92,0.0
96.0,0.0,906.6666666666666,18.933333333333334,0.0
97.0,0.0,906.6666666666666,18.946666666666665,0.0
99.0,0.0,906.6666666666666,18.96,0.0
101.0,0.0,906.6666666666666,18.973333333333333,0.0
103.0,0.0,906.6666666666666,18.986666666666668,0.0
105.0,0.0,906.6666666666666,19.0,0.0
107.0,0.0,906.6666666666666,19.013333333333332,0.0
108.0,0.0,906.6666666666666,19.026666666666667,0.0
109.0,0.0,906.6666666666666,19.04,0.0
109.0,1.0,906.6666666666666,19.053333333333335,0.0
109.0,0.0,906.6666666666666,19.066666666666666,0.0
109.0,0.0,906.6666666666666,19.08,0.0
108.0,0.0,906.6666666666666,19.093333333333334,0.0
108.0,0.0,906.6666666666666,19.106666666666666,0.0
108.0,0.0,906.6666666666666,19.12,0.0
107.0,0.0,906.6666666666666,19.133333333333333,0.0
107.0,0.0,906.6666666666666,19.14666666666667,0.0
106.0,0.0,906.6666666666666,19.16,0.0
106.0,0.0,906.6666666666666,19.173333333333332,0.0
105.0,0.0,906.6666666666666,19.186666666666667,0.0
104.0,0.0,906.6666666666666,19.2,0.0
103.0,0.0,906.6666666666666,19.213333333333335,0.0
102.0,0.0,906.6666666666666,19.226666666666667,0.0
101.0,0.0,906.6666666666666,19.24,0.0
100.0,0.0,906.6666666666666,19.253333333333334,0.0
100.0,0.0,906.6666666666666,19.266666666666666,0.0
99.0,0.0,906.6666666666666,19.28,0.0
99.0,0.0,906.6666666666666,19.293333333333333,0.0
99.0,0.0,906.6666666666666,19.30666666666667,0.0
99.0,0.0,906.6666666666666,19.32,0.0
99.0,0.0,906.6666666666666,19.333333333333332,0.0
99.0,0.0,906.6666666666666,19.346666666666668,0.0
98.0,0.0,906.6666666666666,19.36,0.0
98.0,0.0,906.6666666666666,19.373333333333335,0.0
98.0,0.0,906.6666666666666,19.386666666666667,0.0
98.0,0.0,906.6666666666666,19.4,0.0
97.0,0.0,906.6666666666666,19.413333333333334,0.0
97.0,0.0,906.6666666666666,19.426666666666666,0.0
97.0,0.0,906.6666666666666,19.44,0.0
97.0,0.0,906.6666666666666,19.453333333333333,0.0
97.0,0.0,906.6666666666666,19.466666666666665,0.0
97.0,0.0,906.6666666666666,19.48,0.0
96.0,0.0,906.6666666666666,19.493333333333332,0.0
96.0,0.0,906.6666666666666,19.506666666666668,0.0
96.0,0.0,906.6666666666666,19.52,0.0
96.0,0.0,906.6666666666666,19.533333333333335,0.0
96.0,0.0,906.6666666666666,19.546666666666667,0.0
96.0,0.0,906.6666666666666,19.56,0.0
96.0,0.0,906.6666666666666,19.573333333333334,0.0
96.0,0.0,906.6666666666666,19.586666666666666,0.0
96.0,0.0,906.6666666666666,19.6,0.0
96.0,0.0,906.6666666666666,19.613333333333333,0.0
96.0,0.0,906.6666666666666,19.626666666666665,0.0
96.0,0.0,906.6666666666666,19.64,0.0
96.0,0.0,906.6666666666666,19.653333333333332,0.0
96.0,0.0,906.6666666666666,19.666666666666668,0.0
96.0,0.0,906.6666666666666,19.68,0.0
96.0,0.0,906.6666666666666,19.69333333333333,0.0
96.0,0.0,906.6666666666666,19.706666666666667,0.0
96.0,0.0,906.6666666666666,19.72,0.0
96.0,0.0,906.6666666666666,19.733333333333334,0.0
96.0,0.0,906.6666666666666,19.746666666666666,0.0
96.0,0.0,906.6666666666666,19.76,0.0
96.0,0.0,906.6666666666666,19.773333333333333,0.0
96.0,0.0,906.6666666666666,19.786666666666665,0.0
96.0,0.0,906.6666666666666,19.8,0.0
97.0,0.0,906.6666666666666,19.813333333333333,0.0
98.0,0.0,906.6666666666666,19.826666666666668,0.0
99.0,0.0,906.6666666666666,19.84,0.0
101.0,0.0,906.6666666666666,19.85333333333333,0.0
104.0,0.0,906.6666666666666,19.866666666666667,0.0
106.0,0.0,906.6666666666666,19.88,0.0
108.0,0.0,906.6666666666666,19.893333333333334,0.0
109.0,0.0,906.6666666666666,19.906666666666666,0.0
110.0,0.0,906.6666666666666,19.92,0.0
110.0,1.0,880.0,19.933333333333334,0.0
110.0,0.0,880.0,19.946666666666665,0.0
110.0,0.0,880.0,19.96,0.0
110.0,0.0,880.0,19.973333333333333,0.0
110.0,0.0,880.0,19.986666666666668,0.0
109.0,0.0,880.0,20.0,0.0
109.0,0.0,880.0,20.013333333333332,0.0
109.0,0.0,880.0,20.026666666666667,0.0
108.0,0.0,880.0,20.04,0.0
108.0,0.0,880.0,20.053333333333335,0.0
107.0,0.0,880.0,20.066666666666666,0.0
106.0,0.0,880.0,20.08,0.0
105.0,0.0,880.0,20.093333333333334,0.0
103.0,0.0,880.0,20.106666666666666,0.0
102.0,0.0,880.0,20.12,0.0
101.0,0.0,880.0,20.133333333333333,0.0
100.0,0.0,880.0,20.14666666666667,0.0
99.0,0.0,880.0,20.16,0.0
99.0,0.0,880.0,20.173333333333332,0.0
99.0,0.0,880.0,20.186666666666667,0.0
99.0,0.0,880.0,20.2,0.0
99.0,0.0,880.0,20.213333333333335,0.0
98.0,0.0,880.0,20.226666666666667,0.0
98.0,0.0,880.0,20.24,0.0
98.0,0.0,880.0,20.253333333333334,0.0
98.0,0.0,880.0,20.266666666666666,0.0
97.0,0.0,880.0,20.28,0.0
97.0,0.0,880.0,20.293333333333333,0.0
97.0,0.0,880.0,20.30666666666667,0.0
96.0,0.0,880.0,20.32,0.0
96.0,0.0,880.0,20.333333333333332,0.0
96.0,0.0,880.0,20.346666666666668,0.0
96.0,0.0,880.0,20.36,0.0
95.0,0.0,880.0,20.373333333333335,0.0
95.0,0.0,880.0,20.386666666666667,5.0
95.0,0.0,880.0,20.4,0.0
95.0,0.0,880.0,20.413333333333334,0.0
95.0,0.0,880.0,20.426666666666666,0.0
95.0,0.0,880.0,20.44,0.0
94.0,0.0,880.0,20.453333333333333,0.0
94.0,0.0,880.0,20.466666666666665,0.0
94.0,0.0,880.0,20.48,0.0
94.0,0.0,880.0,20.493333333333332,0.0
94.0,0.0,880.0,20.506666666666668,0.0
94.0,0.0,880.0,20.52,0.0
94.0,0.0,880.0,20.533333333333335,0.0
94.0,0.0,880.0,20.546666666666667,0.0
94.0,0.0,880.0,20.56,0.0
94.0,0.0,880.0,20.573333333333334,0.0
94.0,0.0,880.0,20.586666666666666,0.0
94.0,0.0,880.0,20.6,0.0
94.0,0.0,880.0,20.613333333333333,0.0
94.0,0.0,880.0,20.626666666666665,0.0
94.0,0.0,880.0,20.64,0.0
94.0,0.0,880.0,20.653333333333332,0.0
94.0,0.0,880.0,20.666666666666668,0.0
94.0,0.0,880.0,20.68,0.0
94.0,0.0,880.0,20.69333333333333,0.0
94.0,0.0,880.0,20.706666666666667,0.0
94.0,0.0,880.0,20.72,0.0
94.0,0.0,880.0,20.733333333333334,0.0
94.0,0.0,880.0,20.746666666666666,0.0
96.0,0.0,880.0,20.76,0.0
97.0,0.0,880.0,20.773333333333333,0.0
99.0,0.0,880.0,20.786666666666665,0.0
102.0,0.0,880.0,20.8,0.0
104.0,0.0,880.0,20.813333333333333,0.0
106.0,0.0,880.0,20.826666666666668,0.0
108.0,0.0,880.0,20.84,0.0
108.0,1.0,920.0,20.85333333333333,0.0
109.0,0.0,920.0,20.866666666666667,0.0
109.0,0.0,920.0,20.88,0.0
109.0,0.0,920.0,20.893333333333334,0.0
108.0,0.0,920.0,20.906666666666666,0.0
108.0,0.0,920.0,20.92,0.0
108.0,0.0,920.0,20.933333333333334,0.0
107.0,0.0,920.0,20.946666666666665,0.0
107.0,0.0,920.0,20.96,0.0
106.0,0.0,920.0,20.973333333333333,0.0
106.0,0.0,920.0,20.986666666666668,0.0
105.0,0.0,920.0,21.0,0.0
104.0,0.0,920.0,21.013333333333332,0.0
103.0,0.0,920.0,21.026666666666667,0.0
102.0,0.0,920.0,21.04,0.0
101.0,0.0,920.0,21.053333333333335,0.0
100.0,0.0,920.0,21.066666666666666,0.0
99.0,0.0,920.0,21.08,0.0
99.0,0.0,920.0,21.093333333333334,0.0
98.0,0.0,920.0,21.106666666666666,0.0
98.0,0.0,920.0,21.12,0.0
98.0,0.0,920.0,21.133333333333333,0.0
98.0,0.0,920.0,21.14666666666667,0.0
98.0,0.0,920.0,21.16,0.0
98.0,0.0,920.0,21.173333333333332,0.0
98.0,0.0,920.0,21.186666666666667,0.0
98.0,0.0,920.0,21.2,0.0
97.0,0.0,920.0,21.213333333333335,0.0
97.0,0.0,920.0,21.226666666666667,0.0
97.0,0.0,920.0,21.24,0.0
97.0,0.0,920.0,21.253333333333334,0.0
96.0,0.0,920.0,21.266666666666666,0.0
96.0,0.0,920.0,21.28,0.0
96.0,0.0,920.0,21.293333333333333,0.0
96.0,0.0,920.0,21.30666666666667,0.0
96.0,0.0,920.0,21.32,0.0
95.0,0.0,920.0,21.333333333333332,0.0
95.0,0.0,920.0,21.346666666666668,0.0
95.0,0.0,920.0,21.36,0.0
95.0,0.0,920.0,21.373333333333335,0.0
95.0,0.0,920.0,21.386666666666667,0.0
95.0,0.0,920.0,21.4,0.0
95.0,0.0,920.0,21.413333333333334,0.0
95.0,0.0,920.0,21.426666666666666,0.0
95.0,0.0,920.0,21.44,0.0
95.0,0.0,920.0,21.453333333333333,0.0
95.0,0.0,920.0,21.466666666666665,0.0
96.0,0.0,920.0,21.48,0.0
96.0,0.0,920.0,21.493333333333332,0.0
97.0,0.0,920.0,21.506666666666668,0.0
97.0,0.0,920.0,21.52,0.0
97.0,0.0,920.0,21.533333333333335,0.0
98.0,0.0,920.0,21.546666666666667,0.0
98.0,0.0,920.0,21.56,0.0
98.0,0.0,920.0,21.573333333333334,0.0
98.0,0.0,920.0,21.586666666666666,0.0
98.0,0.0,920.0,21.6,0.0
98.0,0.0,920.0,21.613333333333333,0.0
97.0,0.0,920.0,21.626666666666665,0.0
97.0,0.0,920.0,21.64,0.0
97.0,0.0,920.0,21.653333333333332,0.0
97.0,0.0,920.0,21.666666666666668,0.0
98.0,0.0,920.0,21.68,0.0
99.0,0.0,920.0,21.69333333333333,0.0
101.0,0.0,920.0,21.706666666666667,0.0
102.0,0.0,920.0,21.72,0.0
103.0,0.0,920.0,21.733333333333334,0.0
104.0,0.0,920.0,21.746666666666666,0.0
104.0,0.0,920.0,21.76,0.0
104.0,0.0,920.0,21.773333333333333,0.0
104.0,0.0,920.0,21.786666666666665,0.0
104.0,0.0,920.0,21.8,0.0
105.0,0.0,920.0,21.813333333333333,0.0
105.0,1.0,973.3333333333334,21.826666666666668,0.0
106.0,0.0,973.3333333333334,21.84,0.0
107.0,0.0,973.3333333333334,21.85333333333333,0.0
108.0,0.0,973.3333333333334,21.866666666666667,0.0
109.0,0.0,973.3333333333334,21.88,0.0
110.0,0.0,973.3333333333334,21.893333333333334,0.0
110.0,0.0,973.3333333333334,21.906666666666666,0.0
110.0,0.0,973.3333333333334,21.92,0.0
109.0,0.0,973.3333333333334,21.933333333333334,2.0
108.0,0.0,973.3333333333334,21.946666666666665,0.0
107.0,0.0,973.3333333333334,21.96,0.0
105.0,0.0,973.3333333333334,21.973333333333333,0.0
103.0,0.0,973.3333333333334,21.986666666666668,0.0
101.0,0.0,973.3333333333334,22.0,0.0
99.0,0.0,973.3333333333334,22.013333333333332,0.0
98.0,0.0,973.3333333333334,22.026666666666667,0.0
96.0,0.0,973.3333333333334,22.04,0.0
94.0,0.0,973.3333333333334,22.053333333333335,0.0
93.0,0.0,973.3333333333334,22.066666666666666,0.0
92.0,0.0,973.3333333333334,22.08,0.0
91.0,0.0,973.3333333333334,22.093333333333334,0.0
90.0,0.0,973.3333333333334,22.106666666666666,0.0
90.0,0.0,973.3333333333334,22.12,0.0
89.0,0.0,973.3333333333334,22.133333333333333,0.0
89.0,0.0,973.3333333333334,22.14666666666667,0.0
90.0,0.0,973.3333333333334,22.16,0.0
90.0,0.0,973.3333333333334,22.173333333333332,0.0
91.0,0.0,973.3333333333334,22.186666666666667,0.0
92.0,0.0,973.3333333333334,22.2,0.0
94.0,0.0,973.3333333333334,22.213333333333335,0.0
95.0,0.0,973.3333333333334,22.226666666666667,0.0
97.0,0.0,973.3333333333334,22.24,0.0
98.0,0.0,973.3333333333334,22.253333333333334,0.0
100.0,0.0,973.3333333333334,22.266666666666666,0.0
101.0,0.0,973.3333333333334,22.28,0.0
101.0,0.0,973.3333333333334,22.293333333333333,0.0
102.0,0.0,973.3333333333334,22.30666666666667,0.0
102.0,0.0,973.3333333333334,22.32,0.0
101.0,0.0,973.3333333333334,22.333333333333332,0.0
101.0,0.0,973.3333333333334,22.346666666666668,0.0
100.0,0.0,973.3333333333334,22.36,0.0
99.0,0.0,973.3333333333334,22.373333333333335,0.0
98.0,0.0,973.3333333333334,22.386666666666667,0.0
97.0,0.0,973.3333333333334,22.4,0.0
96.0,0.0,973.3333333333334,22.413333333333334,0.0
96.0,0.0,973.3333333333334,22.426666666666666,0.0
95.0,0.0,973.3333333333334,22.44,0.0
95.0,0.0,973.3333333333334,22.453333333333333,0.0
95.0,0.0,973.3333333333334,22.466666666666665,0.0
95.0,0.0,973.3333333333334,22.48,0.0
95.0,0.0,973.3333333333334,22.493333333333332,0.0
95.0,0.0,973.3333333333334,22.506666666666668,0.0
95.0,0.0,973.3333333333334,22.52,0.0
96.0,0.0,973.3333333333334,22.533333333333335,0.0
97.0,0.0,973.3333333333334,22.546666666666667,0.0
99.0,0.0,973.3333333333334,22.56,0.0
101.0,0.0,973.3333333333334,22.573333333333334,0.0
104.0,0.0,973.3333333333334,22.586666666666666,0.0
106.0,0.0,973.3333333333334,22.6,0.0
108.0,0.0,973.3333333333334,22.613333333333333,0.0
110.0,0.0,973.3333333333334,22.626666666666665,0.0
111.0,0.0,973.3333333333334,22.64,0.0
111.0,1.0,826.6666666666666,22.653333333333332,0.0
111.0,0.0,826.6666666666666,22.666666666666668,0.0
111.0,0.0,826.6666666666666,22.68,0.0
110.0,0.0,826.6666666666666,22.69333333333333,0.0
110.0,0.0,826.6666666666666,22.706666666666667,0.0
109.0,0.0,826.6666666666666,22.72,0.0
109.0,0.0,826.6666666666666,22.733333333333334,0.0
108.0,0.0,826.6666666666666,22.746666666666666,0.0
108.0,0.0,826.6666666666666,22.76,0.0
107.0,0.0,826.6666666666666,22.773333333333333,0.0
107.0,0.0,826.6666666666666,22.786666666666665,0.0
106.0,0.0,826.6666666666666,22.8,0.0
105.0,0.0,826.6666666666666,22.813333333333333,0.0
103.0,0.0,826.6666666666666,22.826666666666668,0.0
102.0,0.0,826.6666666666666,22.84,0.0
101.0,0.0,826.6666666666666,22.85333333333333,0.0
101.0,0.0,826.6666666666666,22.866666666666667,0.0
100.0,0.0,826.6666666666666,22.88,0.0
100.0,0.0,826.6666666666666,22.893333333333334,0.0
99.0,0.0,826.6666666666666,22.906666666666666,0.0
99.0,0.0,826.6666666666666,22.92,0.0
99.0,0.0,826.6666666666666,22.933333333333334,0.0
99.0,0.0,826.6666666666666,22.946666666666665,0.0
99.0,0.0,826.6666666666666,22.96,0.0
99.0,0.0,826.6666666666666,22.973333333333333,0.0
99.0,0.0,826.6666666666666,22.986666666666668,0.0
99.0,0.0,826.6666666666666,23.0,0.0
98.0,0.0,826.6666666666666,23.013333333333332,0.0
98.0,0.0,826.6666666666666,23.026666666666667,0.0
98.0,0.0,826.6666666666666,23.04,0.0
98.0,0.0,826.6666666666666,23.053333333333335,0.0
98.0,0.0,826.6666666666666,23.066666666666666,0.0
97.0,0.0,826.6666666666666,23.08,0.0
97.0,0.0,826.6666666666666,23.093333333333334,0.0
97.0,0.0,826.6666666666666,23.106666666666666,0.0
97.0,0.0,826.6666666666666,23.12,0.0
97.0,0.0,826.6666666666666,23.133333333333333,0.0
97.0,0.0,826.6666666666666,23.14666666666667,0.0
97.0,0.0,826.6666666666666,23.16,0.0
96.0,0.0,826.6666666666666,23.173333333333332,0.0
96.0,0.0,826.6666666666666,23.186666666666667,0.0
96.0,0.0,826.6666666666666,23.2,0.0
96.0,0.0,826.6666666666666,23.213333333333335,0.0
96.0,0.0,826.6666666666666,23.226666666666667,0.0
96.0,0.0,826.6666666666666,23.24,0.0
96.0,0.0,826.6666666666666,23.253333333333334,0.0
96.0,0.0,826.6666666666666,23.266666666666666,0.0
96.0,0.0,826.6666666666666,23.28,0.0
96.0,0.0,826.6666666666666,23.293333333333333,0.0
96.0,0.0,826.6666666666666,23.30666666666667,0.0
96.0,0.0,826.6666666666666,23.32,0.0
96.0,0.0,826.6666666666666,23.333333333333332,0.0
96.0,0.0,826.6666666666666,23.346666666666668,0.0
96.0,0.0,826.6666666666666,23.36,0.0
97.0,0.0,826.6666666666666,23.373333333333335,0.0
99.0,0.0,826.6666666666666,23.386666666666667,0.0
100.0,0.0,826.6666666666666,23.4,0.0
103.0,0.0,826.6666666666666,23.413333333333334,0.0
105.0,0.0,826.6666666666666,23.426666666666666,0.0
106.0,0.0,826.6666666666666,23.44,0.0
108.0,0.0,826.6666666666666,23.453333333333333,0.0
108.0,1.0,813.3333333333334,23.466666666666665,0.0
109.0,0.0,813.3333333333334,23.48,0.0
109.0,0.0,813.3333333333334,23.493333333333332,0.0
108.0,0.0,813.3333333333334,23.506666666666668,0.0
108.0,0.0,813.3333333333334,23.52,0.0
108.0,0.0,813.3333333333334,23.533333333333335,0.0
107.0,0.0,813.3333333333334,23.546666666666667,0.0
107.0,0.0,813.3333333333334,23.56,0.0
106.0,0.0,813.3333333333334,23.573333333333334,0.0
106.0,0.0,813.3333333333334,23.586666666666666,0.0
105.0,0.0,813.3333333333334,23.6,0.0
104.0,0.0,813.3333333333334,23.613333333333333,0.0
104.0,0.0,813.3333333333334,23.626666666666665,0.0
103.0,0.0,813.3333333333334,23.64,0.0
102.0,0.0,813.3333333333334,23.653333333333332,0.0
101.0,0.0,813.3333333333334,23.666666666666668,0.0
100.0,0.0,813.3333333333334,23.68,0.0
99.0,0.0,813.3333333333334,23.69333333333333,0.0
99.0,0.0,813.3333333333334,23.706666666666667,0.0
98.0,0.0,813.3333333333334,23.72,0.0
98.0,0.0,813.3333333333334,23.733333333333334,0.0
98.0,0.0,813.3333333333334,23.746666666666666,0.0
98.0,0.0,813.3333333333334,23.76,0.0
98.0,0.0,813.3333333333334,23.773333333333333,0.0
98.0,0.0,813.3333333333334,23.786666666666665,0.0
98.0,0.0,813.3333333333334,23.8,0.0
97.0,0.0,813.3333333333334,23.813333333333333,0.0
97.0,0.0,813.3333333333334,23.826666666666668,0.0
97.0,0.0,813.3333333333334,23.84,0.0
97.0,0.0,813.3333333333334,23.85333333333333,0.0
96.0,0.0,813.3333333333334,23.866666666666667,0.0
96.0,0.0,813.3333333333334,23.88,0.0
96.0,0.0,813.3333333333334,23.893333333333334,0.0
96.0,0.0,813.3333333333334,23.906666666666666,0.0
96.0,0.0,813.3333333333334,23.92,0.0
95.0,0.0,813.3333333333334,23.933333333333334,0.0
95.0,0.0,813.3333333333334,23.946666666666665,0.0
95.0,0.0,813.3333333333334,23.96,0.0
95.0,0.0,813.3333333333334,23.973333333333333,0.0
95.0,0.0,813.3333333333334,23.986666666666668,0.0
95.0,0.0,813.3333333333334,24.0,0.0
95.0,0.0,813.3333333333334,24.013333333333332,0.0
95.0,0.0,813.3333333333334,24.026666666666667,0.0
95.0,0.0,813.3333333333334,24.04,0.0
95.0,0.0,813.3333333333334,24.053333333333335,0.0
95.0,0.0,813.3333333333334,24.066666666666666,0.0
95.0,0.0,813.3333333333334,24.08,0.0
95.0,0.0,813.3333333333334,24.093333333333334,0.0
95.0,0.0,813.3333333333334,24.106666666666666,0.0
95.0,0.0,813.3333333333334,24.12,0.0
95.0,0.0,813.3333333333334,24.133333333333333,0.0
95.0,0.0,813.3333333333334,24.14666666666667,0.0
95.0,0.0,813.3333333333334,24.16,0.0
95.0,0.0,813.3333333333334,24.173333333333332,0.0
95.0,0.0,813.3333333333334,24.186666666666667,0.0
95.0,0.0,813.3333333333334,24.2,0.0
96.0,0.0,813.3333333333334,24.213333333333335,0.0
97.0,0.0,813.3333333333334,24.226666666666667,0.0
99.0,0.0,813.3333333333334,24.24,0.0
101.0,0.0,813.3333333333334,24.253333333333334,0.0
103.0,0.0,813.3333333333334,24.266666666666666,0.0
105.0,0.0,813.3333333333334,24.28,0.0
107.0,0.0,813.3333333333334,24.293333333333333,0.0
108.0,0.0,813.3333333333334,24.30666666666667,0.0
109.0,0.0,813.3333333333334,24.32,0.0
109.0,1.0,866.6666666666667,24.333333333333332,0.0
108.0,0.0,866.6666666666667,24.346666666666668,0.0
108.0,0.0,866.6666666666667,24.36,0.0
108.0,0.0,866.6666666666667,24.373333333333335,0.0
107.0,0.0,866.6666666666667,24.386666666666667,0.0
107.0,0.0,866.6666666666667,24.4,0.0
106.0,0.0,866.6666666666667,24.413333333333334,0.0
106.0,0.0,866.6666666666667,24.426666666666666,0.0
105.0,0.0,866.6666666666667,24.44,0.0
104.0,0.0,866.6666666666667,24.453333333333333,0.0
104.0,0.0,866.6666666666667,24.466666666666665,0.0
103.0,0.0,866.6666666666667,24.48,0.0
102.0,0.0,866.6666666666667,24.493333333333332,0.0
100.0,0.0,866.6666666666667,24.506666666666668,0.0
99.0,0.0,866.6666666666667,24.52,0.0
99.0,0.0,866.6666666666667,24.533333333333335,0.0
98.0,0.0,866.6666666666667,24.546666666666667,0.0
97.0,0.0,866.6666666666667,24.56,0.0
97.0,0.0,866.6666666666667,24.573333333333334,0.0
97.0,0.0,866.6666666666667,24.586666666666666,0.0
97.0,0.0,866.6666666666667,24.6,0.0
97.0,0.0,866.6666666666667,24.613333333333333,0.0
97.0,0.0,866.6666666666667,24.626666666666665,0.0
97.0,0.0,866.6666666666667,24.64,0.0
96.0,0.0,866.6666666666667,24.653333333333332,0.0
96.0,0.0,866.6666666666667,24.666666666666668,0.0
96.0,0.0,866.6666666666667,24.68,0.0
96.0,0.0,866.6666666666667,24.69333333333333,0.0
95.0,0.0,866.6666666666667,24.706666666666667,0.0
95.0,0.0,866.6666666666667,24.72,0.0
95.0,0.0,866.6666666666667,24.733333333333334,0.0
95.0,0.0,866.6666666666667,24.746666666666666,0.0
94.0,0.0,866.6666666666667,24.76,0.0
94.0,0.0,866.6666666666667,24.773333333333333,0.0
94.0,0.0,866.6666666666667,24.786666666666665,0.0
94.0,0.0,866.6666666666667,24.8,0.0
94.0,0.0,866.6666666666667,24.813333333333333,0.0
94.0,0.0,866.6666666666667,24.826666666666668,0.0
94.0,0.0,866.6666666666667,24.84,0.0
94.0,0.0,866.6666666666667,24.85333333333333,0.0
94.0,0.0,866.6666666666667,24.866666666666667,0.0
94.0,0.0,866.6666666666667,24.88,0.0
93.0,0.0,866.6666666666667,24.893333333333334,0.0
93.0,0.0,866.6666666666667,24.906666666666666,0.0
93.0,0.0,866.6666666666667,24.92,0.0
93.0,0.0,866.6666666666667,24.933333333333334,0.0
93.0,0.0,866.6666666666667,24.946666666666665,0.0
93.0,0.0,866.6666666666667,24.96,0.0
94.0,0.0,866.6666666666667,24.973333333333333,0.0
93.0,0.0,866.6666666666667,24.986666666666668,0.0
93.0,0.0,866.6666666666667,25.0,0.0
93.0,0.0,866.6666666666667,25.013333333333332,0.0
93.0,0.0,866.6666666666667,25.026666666666667,0.0
93.0,0.0,866.6666666666667,25.04,0.0
93.0,0.0,866.6666666666667,25.053333333333335,0.0
94.0,0.0,866.6666666666667,25.066666666666666,0.0
94.0,0.0,866.6666666666667,25.08,0.0
95.0,0.0,866.6666666666667,25.093333333333334,0.0
97.0,0.0,866.6666666666667,25.106666666666666,0.0
99.0,0.0,866.6666666666667,25.12,0.0
101.0,0.0,866.6666666666667,25.133333333333333,0.0
104.0,0.0,866.6666666666667,25.14666666666667,0.0
105.0,0.0,866.6666666666667,25.16,0.0
107.0,0.0,866.6666666666667,25.173333333333332,0.0
107.0,1.0,853.3333333333334,25.186666666666667,0.0
107.0,0.0,853.3333333333334,25.2,0.0
107.0,0.0,853.3333333333334,25.213333333333335,0.0
107.0,0.0,853.3333333333334,25.226666666666667,0.0
106.0,0.0,853.3333333333334,25.24,0.0
106.0,0.0,853.3333333333334,25.253333333333334,0.0
105.0,0.0,853.3333333333334,25.266666666666666,0.0
105.0,0.0,853.3333333333334,25.28,0.0
105.0,0.0,853.3333333333334,25.293333333333333,0.0
104.0,0.0,853.3333333333334,25.30666666666667,0.0
103.0,0.0,853.3333333333334,25.32,0.0
103.0,0.0,853.3333333333334,25.333333333333332,0.0
102.0,0.0,853.3333333333334,25.346666666666668,0.0
101.0,0.0,853.3333333333334,25.36,0.0
100.0,0.0,853.3333333333334,25.373333333333335,0.0
99.0,0.0,853.3333333333334,25.386666666666667,0.0
99.0,0.0,853.3333333333334,25.4,0.0
99.0,0.0,853.3333333333334,25.413333333333334,0.0
98.0,0.0,853.3333333333334,25.426666666666666,0.0
98.0,0.0,853.3333333333334,25.44,0.0
98.0,0.0,853.3333333333334,25.453333333333333,0.0
98.0,0.0,853.3333333333334,25.466666666666665,0.0
98.0,0.0,853.3333333333334,25.48,0.0
98.0,0.0,853.3333333333334,25.493333333333332,0.0
98.0,0.0,853.3333333333334,25.506666666666668,0.0
98.0,0.0,853.3333333333334,25.52,0.0
98.0,0.0,853.3333333333334,25.533333333333335,0.0
97.0,0.0,853.3333333333334,25.546666666666667,0.0
97.0,0.0,853.3333333333334,25.56,0.0
97.0,0.0,853.3333333333334,25.573333333333334,0.0
97.0,0.0,853.3333333333334,25.586666666666666,0.0
97.0,0.0,853.3333333333334,25.6,0.0
97.0,0.0,853.3333333333334,25.613333333333333,0.0
97.0,0.0,853.3333333333334,25.626666666666665,0.0
96.0,0.0,853.3333333333334,25.64,0.0
96.0,0.0,853.3333333333334,25.653333333333332,0.0
96.0,0.0,853.3333333333334,25.666666666666668,0.0
96.0,0.0,853.3333333333334,25.68,0.0
96.0,0.0,853.3333333333334,25.69333333333333,0.0
96.0,0.0,853.3333333333334,25.706666666666667,0.0
96.0,0.0,853.3333333333334,25.72,0.0
96.0,0.0,853.3333333333334,25.733333333333334,0.0
96.0,0.0,853.3333333333334,25.746666666666666,0.0
96.0,0.0,853.3333333333334,25.76,0.0
96.0,0.0,853.3333333333334,25.773333333333333,0.0
96.0,0.0,853.3333333333334,25.786666666666665,0.0
96.0,0.0,853.3333333333334,25.8,0.0
96.0,0.0,853.3333333333334,25.813333333333333,0.0
96.0,0.0,853.3333333333334,25.826666666666668,0.0
97.0,0.0,853.3333333333334,25.84,0.0
97.0,0.0,853.3333333333334,25.85333333333333,0.0
99.0,0.0,853.3333333333334,25.866666666666667,0.0
100.0,0.0,853.3333333333334,25.88,0.0
102.0,0.0,853.3333333333334,25.893333333333334,0.0
105.0,0.0,853.3333333333334,25.906666666666666,0.0
107.0,0.0,853.3333333333334,25.92,0.0
108.0,0.0,853.3333333333334,25.933333333333334,0.0
109.0,0.0,853.3333333333334,25.946666666666665,0.0
110.0,0.0,853.3333333333334,25.96,0.0
110.0,1.0,786.6666666666666,25.973333333333333,0.0
110.0,0.0,786.6666666666666,25.986666666666668,0.0
109.0,0.0,786.6666666666666,26.0,0.0
109.0,0.0,786.6666666666666,26.013333333333332,0.0
109.0,0.0,786.6666666666666,26.026666666666667,0.0
108.0,0.0,786.6666666666666,26.04,0.0
108.0,0.0,786.6666666666666,26.053333333333335,0.0
107.0,0.0,786.6666666666666,26.066666666666666,0.0
107.0,0.0,786.6666666666666,26.08,0.0
106.0,0.0,786.6666666666666,26.093333333333334,0.0
105.0,0.0,786.6666666666666,26.106666666666666,0.0
104.0,0.0,786.6666666666666,26.12,0.0
103.0,0.0,786.6666666666666,26.133333333333333,0.0
102.0,0.0,786.6666666666666,26.14666666666667,0.0
101.0,0.0,786.6666666666666,26.16,0.0
100.0,0.0,786.6666666666666,26.173333333333332,0.0
100.0,0.0,786.6666666666666,26.186666666666667,0.0
99.0,0.0,786.6666666666666,26.2,0.0
99.0,0.0,786.6666666666666,26.213333333333335,0.0
99.0,0.0,786.6666666666666,26.226666666666667,0.0
99.0,0.0,786.6666666666666,26.24,0.0
99.0,0.0,786.6666666666666,26.253333333333334,0.0
99.0,0.0,786.6666666666666,26.266666666666666,0.0
98.0,0.0,786.6666666666666,26.28,0.0
98.0,0.0,786.6666666666666,26.293333333333333,0.0
98.0,0.0,786.6666666666666,26.30666666666667,0.0
98.0,0.0,786.6666666666666,26.32,0.0
98.0,0.0,786.6666666666666,26.333333333333332,0.0
98.0,0.0,786.6666666666666,26.346666666666668,0.0
97.0,0.0,786.6666666666666,26.36,0.0
97.0,0.0,786.6666666666666,26.373333333333335,0.0
97.0,0.0,786.6666666666666,26.386666666666667,0.0
97.0,0.0,786.6666666666666,26.4,0.0
96.0,0.0,786.6666666666666,26.413333333333334,0.0
96.0,0.0,786.6666666666666,26.426666666666666,0.0
96.0,0.0,786.6666666666666,26.44,0.0
96.0,0.0,786.6666666666666,26.453333333333333,0.0
96.0,0.0,786.6666666666666,26.466666666666665,0.0
96.0,0.0,786.6666666666666,26.48,0.0
96.0,0.0,786.6666666666666,26.493333333333332,0.0
96.0,0.0,786.6666666666666,26.506666666666668,0.0
96.0,0.0,786.6666666666666,26.52,0.0
96.0,0.0,786.6666666666666,26.533333333333335,0.0
96.0,0.0,786.6666666666666,26.546666666666667,0.0
96.0,0.0,786.6666666666666,26.56,0.0
96.0,0.0,786.6666666666666,26.573333333333334,0.0
96.0,0.0,786.6666666666666,26.586666666666666,0.0
96.0,0.0,786.6666666666666,26.6,0.0
96.0,0.0,786.6666666666666,26.613333333333333,0.0
96.0,0.0,786.6666666666666,26.626666666666665,0.0
96.0,0.0,786.6666666666666,26.64,0.0
96.0,0.0,786.6666666666666,26.653333333333332,0.0
96.0,0.0,786.6666666666666,26.666666666666668,0.0
96.0,0.0,786.6666666666666,26.68,0.0
96.0,0.0,786.6666666666666,26.69333333333333,0.0
96.0,0.0,786.6666666666666,26.706666666666667,0.0
96.0,0.0,786.6666666666666,26.72,0.0
96.0,0.0,786.6666666666666,26.733333333333334,0.0
96.0,0.0,786.6666666666666,26.746666666666666,0.0
96.0,0.0,786.6666666666666,26.76,0.0
97.0,0.0,786.6666666666666,26.773333333333333,0.0
98.0,0.0,786.6666666666666,26.786666666666665,0.0
100.0,0.0,786.6666666666666,26.8,0.0
103.0,0.0,786.6666666666666,26.813333333333333,0.0
105.0,0.0,786.6666666666666,26.826666666666668,0.0
107.0,0.0,786.6666666666666,26.84,0.0
109.0,0.0,786.6666666666666,26.85333333333333,0.0
110.0,0.0,786.6666666666666,26.866666666666667,0.0
111.0,0.0,786.6666666666666,26.88,0.0
111.0,1.0,920.0,26.893333333333334,0.0
111.0,0.0,920.0,26.906666666666666,0.0
110.0,0.0,920.0,26.92,0.0
110.0,0.0,920.0,26.933333333333334,0.0
110.0,0.0,920.0,26.946666666666665,0.0
109.0,0.0,920.0,26.96,0.0
109.0,0.0,920.0,26.973333333333333,0.0
108.0,0.0,920.0,26.986666666666668,0.0
108.0,0.0,920.0,27.0,0.0
107.0,0.0,920.0,27.013333333333332,0.0
106.0,0.0,920.0,27.026666666666667,0.0
105.0,0.0,920.0,27.04,0.0
104.0,0.0,920.0,27.053333333333335,0.0
103.0,0.0,920.0,27.066666666666666,0.0
102.0,0.0,920.0,27.08,0.0
101.0,0.0,920.0,27.093333333333334,0.0
100.0,0.0,920.0,27.106666666666666,0.0
99.0,0.0,920.0,27.12,0.0
99.0,0.0,920.0,27.133333333333333,0.0
99.0,0.0,920.0,27.14666666666667,0.0
99.0,0.0,920.0,27.16,0.0
99.0,0.0,920.0,27.173333333333332,0.0
99.0,0.0,920.0,27.186666666666667,0.0
98.0,0.0,920.0,27.2,0.0
98.0,0.0,920.0,27.213333333333335,0.0
98.0,0.0,920.0,27.226666666666667,0.0
98.0,0.0,920.0,27.24,0.0
97.0,0.0,920.0,27.253333333333334,0.0
97.0,0.0,920.0,27.266666666666666,0.0
97.0,0.0,920.0,27.28,0.0
97.0,0.0,920.0,27.293333333333333,0.0
96.0,0.0,920.0,27.30666666666667,0.0
96.0,0.0,920.0,27.32,0.0
96.0,0.0,920.0,27.333333333333332,0.0
96.0,0.0,920.0,27.346666666666668,0.0
96.0,0.0,920.0,27.36,0.0
96.0,0.0,920.0,27.373333333333335,0.0
95.0,0.0,920.0,27.386666666666667,0.0
95.0,0.0,920.0,27.4,0.0
95.0,0.0,920.0,27.413333333333334,0.0
95.0,0.0,920.0,27.426666666666666,0.0
95.0,0.0,920.0,27.44,0.0
95.0,0.0,920.0,27.453333333333333,0.0
95.0,0.0,920.0,27.466666666666665,0.0
95.0,0.0,920.0,27.48,3.0
95.0,0.0,920.0,27.493333333333332,0.0
95.0,0.0,920.0,27.506666666666668,0.0
95.0,0.0,920.0,27.52,0.0
95.0,0.0,920.0,27.533333333333335,0.0
96.0,0.0,920.0,27.546666666666667,0.0
96.0,0.0,920.0,27.56,0.0
96.0,0.0,920.0,27.573333333333334,0.0
96.0,0.0,920.0,27.586666666666666,0.0
96.0,0.0,920.0,27.6,0.0
96.0,0.0,920.0,27.613333333333333,0.0
96.0,0.0,920.0,27.626666666666665,0.0
96.0,0.0,920.0,27.64,0.0
96.0,0.0,920.0,27.653333333333332,0.0
96.0,0.0,920.0,27.666666666666668,0.0
96.0,0.0,920.0,27.68,0.0
96.0,0.0,920.0,27.69333333333333,0.0
98.0,0.0,920.0,27.706666666666667,0.0
99.0,0.0,920.0,27.72,0.0
101.0,0.0,920.0,27.733333333333334,0.0
104.0,0.0,920.0,27.746666666666666,0.0
106.0,0.0,920.0,27.76,0.0
108.0,0.0,920.0,27.773333333333333,0.0
109.0,0.0,920.0,27.786666666666665,0.0
110.0,0.0,920.0,27.8,0.0
110.0,1.0,920.0,27.813333333333333,0.0
110.0,0.0,920.0,27.826666666666668,0.0
110.0,0.0,920.0,27.84,0.0
109.0,0.0,920.0,27.85333333333333,0.0
109.0,0.0,920.0,27.866666666666667,0.0
108.0,0.0,920.0,27.88,0.0
108.0,0.0,920.0,27.893333333333334,0.0
108.0,0.0,920.0,27.906666666666666,0.0
107.0,0.0,920.0,27.92,0.0
107.0,0.0,920.0,27.933333333333334,0.0
106.0,0.0,920.0,27.946666666666665,0.0
105.0,0.0,920.0,27.96,0.0
104.0,0.0,920.0,27.973333333333333,0.0
103.0,0.0,920.0,27.986666666666668,0.0
101.0,0.0,920.0,28.0,0.0
100.0,0.0,920.0,28.013333333333332,0.0
100.0,0.0,920.0,28.026666666666667,0.0
99.0,0.0,920.0,28.04,0.0
98.0,0.0,920.0,28.053333333333335,0.0
98.0,0.0,920.0,28.066666666666666,0.0
98.0,0.0,920.0,28.08,0.0
98.0,0.0,920.0,28.093333333333334,0.0
98.0,0.0,920.0,28.106666666666666,0.0
98.0,0.0,920.0,28.12,0.0
98.0,0.0,920.0,28.133333333333333,0.0
97.0,0.0,920.0,28.14666666666667,0.0
97.0,0.0,920.0,28.16,0.0
97.0,0.0,920.0,28.173333333333332,0.0
97.0,0.0,920.0,28.186666666666667,0.0
97.0,0.0,920.0,28.2,0.0
96.0,0.0,920.0,28.213333333333335,0.0
96.0,0.0,920.0,28.226666666666667,0.0
96.0,0.0,920.0,28.24,0.0
96.0,0.0,920.0,28.253333333333334,0.0
95.0,0.0,920.0,28.266666666666666,0.0
95.0,0.0,920.0,28.28,0.0
95.0,0.0,920.0,28.293333333333333,0.0
95.0,0.0,920.0,28.30666666666667,0.0
95.0,0.0,920.0,28.32,0.0
95.0,0.0,920.0,28.333333333333332,0.0
95.0,0.0,920.0,28.346666666666668,0.0
95.0,0.0,920.0,28.36,0.0
95.0,0.0,920.0,28.373333333333335,0.0
95.0,0.0,920.0,28.386666666666667,0.0
95.0,0.0,920.0,28.4,0.0
95.0,0.0,920.0,28.413333333333334,0.0
95.0,0.0,920.0,28.426666666666666,0.0
95.0,0.0,920.0,28.44,0.0
95.0,0.0,920.0,28.453333333333333,0.0
95.0,0.0,920.0,28.466666666666665,0.0
95.0,0.0,920.0,28.48,0.0
95.0,0.0,920.0,28.493333333333332,0.0
95.0,0.0,920.0,28.506666666666668,0.0
95.0,0.0,920.0,28.52,0.0
95.0,0.0,920.0,28.533333333333335,0.0
95.0,0.0,920.0,28.546666666666667,0.0
95.0,0.0,920.0,28.56,0.0
94.0,0.0,920.0,28.573333333333334,0.0
95.0,0.0,920.0,28.586666666666666,0.0
95.0,0.0,920.0,28.6,0.0
95.0,0.0,920.0,28.613333333333333,0.0
95.0,0.0,920.0,28.626666666666665,0.0
96.0,0.0,920.0,28.64,0.0
98.0,0.0,920.0,28.653333333333332,0.0
100.0,0.0,920.0,28.666666666666668,0.0
102.0,0.0,920.0,28.68,0.0
105.0,0.0,920.0,28.69333333333333,0.0
106.0,0.0,920.0,28.706666666666667,0.0
108.0,0.0,920.0,28.72,0.0
108.0,1.0,920.0,28.733333333333334,0.0
108.0,0.0,920.0,28.746666666666666,0.0
108.0,0.0,920.0,28.76,0.0
108.0,0.0,920.0,28.773333333333333,0.0
107.0,0.0,920.0,28.786666666666665,0.0
107.0,0.0,920.0,28.8,0.0
107.0,0.0,920.0,28.813333333333333,0.0
106.0,0.0,920.0,28.826666666666668,0.0
106.0,0.0,920.0,28.84,0.0
105.0,0.0,920.0,28.85333333333333,0.0
105.0,0.0,920.0,28.866666666666667,0.0
104.0,0.0,920.0,28.88,0.0
103.0,0.0,920.0,28.893333333333334,0.0
102.0,0.0,920.0,28.906666666666666,0.0
101.0,0.0,920.0,28.92,0.0
100.0,0.0,920.0,28.933333333333334,0.0
99.0,0.0,920.0,28.946666666666665,0.0
99.0,0.0,920.0,28.96,0.0
98.0,0.0,920.0,28.973333333333333,0.0
98.0,0.0,920.0,28.986666666666668,0.0
98.0,0.0,920.0,29.0,0.0
98.0,0.0,920.0,29.013333333333332,0.0
98.0,0.0,920.0,29.026666666666667,0.0
97.0,0.0,920.0,29.04,0.0
97.0,0.0,920.0,29.053333333333335,0.0
97.0,0.0,920.0,29.066666666666666,0.0
97.0,0.0,920.0,29.08,0.0
97.0,0.0,920.0,29.093333333333334,0.0
96.0,0.0,920.0,29.106666666666666,0.0
96.0,0.0,920.0,29.12,0.0
96.0,0.0,920.0,29.133333333333333,0.0
96.0,0.0,920.0,29.14666666666667,0.0
96.0,0.0,920.0,29.16,0.0
96.0,0.0,920.0,29.173333333333332,0.0
96.0,0.0,920.0,29.186666666666667,0.0
95.0,0.0,920.0,29.2,0.0
95.0,0.0,920.0,29.213333333333335,0.0
95.0,0.0,920.0,29.226666666666667,0.0
95.0,0.0,920.0,29.24,0.0
95.0,0.0,920.0,29.253333333333334,0.0
95.0,0.0,920.0,29.266666666666666,0.0
95.0,0.0,920.0,29.28,0.0
95.0,0.0,920.0,29.293333333333333,0.0
95.0,0.0,920.0,29.30666666666667,0.0
95.0,0.0,920.0,29.32,0.0
95.0,0.0,920.0,29.333333333333332,0.0
95.0,0.0,920.0,29.346666666666668,0.0
95.0,0.0,920.0,29.36,0.0
96.0,0.0,920.0,29.373333333333335,0.0
96.0,0.0,920.0,29.386666666666667,0.0
96.0,0.0,920.0,29.4,0.0
96.0,0.0,920.0,29.413333333333334,0.0
96.0,0.0,920.0,29.426666666666666,0.0
96.0,0.0,920.0,29.44,0.0
96.0,0.0,920.0,29.453333333333333,0.0
96.0,0.0,920.0,29.466666666666665,0.0
96.0,0.0,920.0,29.48,0.0
96.0,0.0,920.0,29.493333333333332,0.0
97.0,0.0,920.0,29.506666666666668,0.0
99.0,0.0,920.0,29.52,0.0
101.0,0.0,920.0,29.533333333333335,0.0
103.0,0.0,920.0,29.546666666666667,0.0
105.0,0.0,920.0,29.56,0.0
107.0,0.0,920.0,29.573333333333334,0.0
108.0,0.0,920.0,29.586666666666666,0.0
109.0,0.0,920.0,29.6,0.0
110.0,0.0,920.0,29.613333333333333,0.0
110.0,1.0,893.3333333333333,29.626666666666665,0.0
109.0,0.0,893.3333333333333,29.64,0.0
109.0,0.0,893.3333333333333,29.653333333333332,0.0
108.0,0.0,893.3333333333333,29.666666666666668,0.0
108.0,0.0,893.3333333333333,29.68,0.0
108.0,0.0,893.3333333333333,29.69333333333333,0.0
107.0,0.0,893.3333333333333,29.706666666666667,0.0
107.0,0.0,893.3333333333333,29.72,0.0
106.0,0.0,893.3333333333333,29.733333333333334,0.0
106.0,0.0,893.3333333333333,29.746666666666666,0.0
105.0,0.0,893.3333333333333,29.76,0.0
104.0,0.0,893.3333333333333,29.773333333333333,0.0
103.0,0.0,893.3333333333333,29.786666666666665,0.0
102.0,0.0,893.3333333333333,29.8,0.0
101.0,0.0,893.3333333333333,29.813333333333333,0.0
100.0,0.0,893.3333333333333,29.826666666666668,0.0
100.0,0.0,893.3333333333333,29.84,0.0
100.0,0.0,893.3333333333333,29.85333333333333,0.0
100.0,0.0,893.3333333333333,29.866666666666667,0.0
99.0,0.0,893.3333333333333,29.88,0.0
99.0,0.0,893.3333333333333,29.893333333333334,0.0
99.0,0.0,893.3333333333333,29.906666666666666,0.0
99.0,0.0,893.3333333333333,29.92,0.0
99.0,0.0,893.3333333333333,29.933333333333334,0.0
99.0,0.0,893.3333333333333,29.946666666666665,0.0
98.0,0.0,893.3333333333333,29.96,0.0
98.0,0.0,893.3333333333333,29.973333333333333,0.0
98.0,0.0,893.3333333333333,29.986666666666668,0.0
97.0,0.0,893.3333333333333,30.0,0.0
97.0,0.0,893.3333333333333,30.013333333333332,0.0
97.0,0.0,893.3333333333333,30.026666666666667,0.0
97.0,0.0,893.3333333333333,30.04,0.0
97.0,0.0,893.3333333333333,30.053333333333335,0.0
96.0,0.0,893.3333333333333,30.066666666666666,0.0
96.0,0.0,893.3333333333333,30.08,0.0
96.0,0.0,893.3333333333333,30.093333333333334,0.0
96.0,0.0,893.3333333333333,30.106666666666666,0.0
96.0,0.0,893.3333333333333,30.12,0.0
96.0,0.0,893.3333333333333,30.133333333333333,0.0
96.0,0.0,893.3333333333333,30.14666666666667,0.0
96.0,0.0,893.3333333333333,30.16,0.0
95.0,0.0,893.3333333333333,30.173333333333332,0.0
95.0,0.0,893.3333333333333,30.186666666666667,0.0
96.0,0.0,893.3333333333333,30.2,0.0
96.0,0.0,893.3333333333333,30.213333333333335,0.0
96.0,0.0,893.3333333333333,30.226666666666667,0.0
96.0,0.0,893.3333333333333,30.24,0.0
96.0,0.0,893.3333333333333,30.253333333333334,0.0
96.0,0.0,893.3333333333333,30.266666666666666,0.0
96.0,0.0,893.3333333333333,30.28,0.0
96.0,0.0,893.3333333333333,30.293333333333333,0.0
96.0,0.0,893.3333333333333,30.30666666666667,0.0
96.0,0.0,893.3333333333333,30.32,0.0
96.0,0.0,893.3333333333333,30.333333333333332,0.0
96.0,0.0,893.3333333333333,30.346666666666668,0.0
96.0,0.0,893.3333333333333,30.36,0.0
96.0,0.0,893.3333333333333,30.373333333333335,0.0
97.0,0.0,893.3333333333333,30.386666666666667,0.0
98.0,0.0,893.3333333333333,30.4,0.0
100.0,0.0,893.3333333333333,30.413333333333334,0.0
102.0,0.0,893.3333333333333,30.426666666666666,0.0
105.0,0.0,893.3333333333333,30.44,0.0
107.0,0.0,893.3333333333333,30.453333333333333,0.0
108.0,0.0,893.3333333333333,30.466666666666665,0.0
110.0,0.0,893.3333333333333,30.48,0.0
110.0,1.0,866.6666666666667,30.493333333333332,0.0
110.0,0.0,866.6666666666667,30.506666666666668,0.0
110.0,0.0,866.6666666666667,30.52,0.0
110.0,0.0,866.6666666666667,30.533333333333335,0.0
109.0,0.0,866.6666666666667,30.546666666666667,0.0
109.0,0.0,866.6666666666667,30.56,0.0
109.0,0.0,866.6666666666667,30.573333333333334,0.0
108.0,0.0,866.6666666666667,30.586666666666666,0.0
108.0,0.0,866.6666666666667,30.6,0.0
107.0,0.0,866.6666666666667,30.613333333333333,0.0
107.0,0.0,866.6666666666667,30.626666666666665,0.0
106.0,0.0,866.6666666666667,30.64,0.0
105.0,0.0,866.6666666666667,30.653333333333332,0.0
104.0,0.0,866.6666666666667,30.666666666666668,0.0
102.0,0.0,866.6666666666667,30.68,0.0
101.0,0.0,866.6666666666667,30.69333333333333,0.0
100.0,0.0,866.6666666666667,30.706666666666667,0.0
100.0,0.0,866.6666666666667,30.72,0.0
99.0,0.0,866.6666666666667,30.733333333333334,0.0
99.0,0.0,866.6666666666667,30.746666666666666,0.0
99.0,0.0,866.6666666666667,30.76,0.0
99.0,0.0,866.6666666666667,30.773333333333333,0.0
99.0,0.0,866.6666666666667,30.786666666666665,0.0
98.0,0.0,866.6666666666667,30.8,0.0
98.0,0.0,866.6666666666667,30.813333333333333,0.0
98.0,0.0,866.6666666666667,30.826666666666668,0.0
98.0,0.0,866.6666666666667,30.84,0.0
97.0,0.0,866.6666666666667,30.85333333333333,0.0
97.0,0.0,866.6666666666667,30.866666666666667,0.0
97.0,0.0,866.6666666666667,30.88,0.0
97.0,0.0,866.6666666666667,30.893333333333334,0.0
96.0,0.0,866.6666666666667,30.906666666666666,0.0
96.0,0.0,866.6666666666667,30.92,0.0
96.0,0.0,866.6666666666667,30.933333333333334,0.0
96.0,0.0,866.6666666666667,30.946666666666665,0.0
96.0,0.0,866.6666666666667,30.96,0.0
95.0,0.0,866.6666666666667,30.973333333333333,0.0
95.0,0.0,866.6666666666667,30.986666666666668,0.0
95.0,0.0,866.6666666666667,31.0,0.0
95.0,0.0,866.6666666666667,31.013333333333332,0.0
95.0,0.0,866.6666666666667,31.026666666666667,0.0
95.0,0.0,866.6666666666667,31.04,0.0
95.0,0.0,866.6666666666667,31.053333333333335,0.0
95.0,0.0,866.6666666666667,31.066666666666666,0.0
95.0,0.0,866.6666666666667,31.08,0.0
95.0,0.0,866.6666666666667,31.093333333333334,0.0
95.0,0.0,866.6666666666667,31.106666666666666,0.0
95.0,0.0,866.6666666666667,31.12,0.0
95.0,0.0,866.6666666666667,31.133333333333333,0.0
95.0,0.0,866.6666666666667,31.14666666666667,0.0
95.0,0.0,866.6666666666667,31.16,0.0
95.0,0.0,866.6666666666667,31.173333333333332,0.0
95.0,0.0,866.6666666666667,31.186666666666667,0.0
95.0,0.0,866.6666666666667,31.2,0.0
95.0,0.0,866.6666666666667,31.213333333333335,0.0
95.0,0.0,866.6666666666667,31.226666666666667,0.0
95.0,0.0,866.6666666666667,31.24,0.0
95.0,0.0,866.6666666666667,31.253333333333334,0.0
95.0,0.0,866.6666666666667,31.266666666666666,0.0
95.0,0.0,866.6666666666667,31.28,0.0
96.0,0.0,866.6666666666667,31.293333333333333,0.0
96.0,0.0,866.6666666666667,31.30666666666667,0.0
98.0,0.0,866.6666666666667,31.32,0.0
100.0,0.0,866.6666666666667,31.333333333333332,0.0
102.0,0.0,866.6666666666667,31.346666666666668,0.0
104.0,0.0,866.6666666666667,31.36,0.0
106.0,0.0,866.6666666666667,31.373333333333335,0.0
108.0,0.0,866.6666666666667,31.386666666666667,0.0
109.0,0.0,866.6666666666667,31.4,0.0
109.0,1.0,920.0,31.413333333333334,0.0
109.0,0.0,920.0,31.426666666666666,0.0
108.0,0.0,920.0,31.44,0.0
108.0,0.0,920.0,31.453333333333333,0.0
108.0,0.0,920.0,31.466666666666665,0.0
107.0,0.0,920.0,31.48,0.0
107.0,0.0,920.0,31.493333333333332,0.0
107.0,0.0,920.0,31.506666666666668,0.0
106.0,0.0,920.0,31.52,0.0
106.0,0.0,920.0,31.533333333333335,0.0
105.0,0.0,920.0,31.546666666666667,0.0
104.0,0.0,920.0,31.56,0.0
103.0,0.0,920.0,31.573333333333334,0.0
102.0,0.0,920.0,31.586666666666666,0.0
101.0,0.0,920.0,31.6,0.0
100.0,0.0,920.0,31.613333333333333,0.0
99.0,0.0,920.0,31.626666666666665,4.0
99.0,0.0,920.0,31.64,0.0
98.0,0.0,920.0,31.653333333333332,0.0
98.0,0.0,920.0,31.666666666666668,0.0
98.0,0.0,920.0,31.68,0.0
98.0,0.0,920.0,31.69333333333333,0.0
98.0,0.0,920.0,31.706666666666667,0.0
98.0,0.0,920.0,31.72,0.0
98.0,0.0,920.0,31.733333333333334,0.0
97.0,0.0,920.0,31.746666666666666,0.0
97.0,0.0,920.0,31.76,0.0
97.0,0.0,920.0,31.773333333333333,0.0
97.0,0.0,920.0,31.786666666666665,0.0
96.0,0.0,920.0,31.8,0.0
96.0,0.0,920.0,31.813333333333333,0.0
96.0,0.0,920.0,31.826666666666668,0.0
96.0,0.0,920.0,31.84,0.0
96.0,0.0,920.0,31.85333333333333,0.0
96.0,0.0,920.0,31.866666666666667,0.0
96.0,0.0,920.0,31.88,0.0
96.0,0.0,920.0,31.893333333333334,0.0
96.0,0.0,920.0,31.906666666666666,0.0
95.0,0.0,920.0,31.92,0.0
95.0,0.0,920.0,31.933333333333334,0.0
95.0,0.0,920.0,31.946666666666665,0.0
95.0,0.0,920.0,31.96,0.0
95.0,0.0,920.0,31.973333333333333,0.0
95.0,0.0,920.0,31.986666666666668,0.0
95.0,0.0,920.0,32.0,0.0
95.0,0.0,920.0,32.013333333333335,0.0
96.0,0.0,920.0,32.026666666666664,0.0
96.0,0.0,920.0,32.04,0.0
96.0,0.0,920.0,32.053333333333335,0.0
96.0,0.0,920.0,32.06666666666667,0.0
96.0,0.0,920.0,32.08,0.0
96.0,0.0,920.0,32.093333333333334,0.0
95.0,0.0,920.0,32.10666666666667,0.0
95.0,0.0,920.0,32.12,0.0
95.0,0.0,920.0,32.13333333333333,0.0
95.0,0.0,920.0,32.14666666666667,0.0
96.0,0.0,920.0,32.16,0.0
96.0,0.0,920.0,32.17333333333333,0.0
96.0,0.0,920.0,32.18666666666667,0.0
98.0,0.0,920.0,32.2,0.0
99.0,0.0,920.0,32.21333333333333,0.0
101.0,0.0,920.0,32.22666666666667,0.0
103.0,0.0,920.0,32.24,0.0
106.0,0.0,920.0,32.25333333333333,0.0
107.0,0.0,920.0,32.266666666666666,0.0
108.0,0.0,920.0,32.28,0.0
109.0,0.0,920.0,32.29333333333334,0.0
109.0,1.0,893.3333333333333,32.306666666666665,0.0
109.0,0.0,893.3333333333333,32.32,0.0
109.0,0.0,893.3333333333333,32.333333333333336,0.0
108.0,0.0,893.3333333333333,32.346666666666664,0.0
108.0,0.0,893.3333333333333,32.36,0.0
108.0,0.0,893.3333333333333,32.373333333333335,0.0
108.0,0.0,893.3333333333333,32.38666666666666,0.0
107.0,0.0,893.3333333333333,32.4,0.0
107.0,0.0,893.3333333333333,32.413333333333334,0.0
106.0,0.0,893.3333333333333,32.42666666666667,0.0
105.0,0.0,893.3333333333333,32.44,0.0
104.0,0.0,893.3333333333333,32.45333333333333,0.0
103.0,0.0,893.3333333333333,32.46666666666667,0.0
102.0,0.0,893.3333333333333,32.48,0.0
101.0,0.0,893.3333333333333,32.49333333333333,0.0
100.0,0.0,893.3333333333333,32.50666666666667,0.0
100.0,0.0,893.3333333333333,32.52,0.0
99.0,0.0,893.3333333333333,32.53333333333333,0.0
99.0,0.0,893.3333333333333,32.54666666666667,0.0
99.0,0.0,893.3333333333333,32.56,0.0
99.0,0.0,893.3333333333333,32.57333333333333,0.0
99.0,0.0,893.3333333333333,32.586666666666666,0.0
98.0,0.0,893.3333333333333,32.6,0.0
98.0,0.0,893.3333333333333,32.61333333333334,0.0
98.0,0.0,893.3333333333333,32.626666666666665,0.0
98.0,0.0,893.3333333333333,32.64,0.0
98.0,0.0,893.3333333333333,32.653333333333336,0.0
97.0,0.0,893.3333333333333,32.666666666666664,0.0
97.0,0.0,893.3333333333333,32.68,0.0
97.0,0.0,893.3333333333333,32.693333333333335,0.0
97.0,0.0,893.3333333333333,32.70666666666666,0.0
96.0,0.0,893.3333333333333,32.72,0.0
96.0,0.0,893.3333333333333,32.733333333333334,0.0
96.0,0.0,893.3333333333333,32.74666666666667,0.0
96.0,0.0,893.3333333333333,32.76,0.0
96.0,0.0,893.3333333333333,32.77333333333333,0.0
96.0,0.0,893.3333333333333,32.78666666666667,0.0
96.0,0.0,893.3333333333333,32.8,0.0
96.0,0.0,893.3333333333333,32.81333333333333,0.0
96.0,0.0,893.3333333333333,32.82666666666667,0.0
96.0,0.0,893.3333333333333,32.84,0.0
96.0,0.0,893.3333333333333,32.85333333333333,0.0
96.0,0.0,893.3333333333333,32.86666666666667,0.0
96.0,0.0,893.3333333333333,32.88,0.0
96.0,0.0,893.3333333333333,32.89333333333333,0.0
96.0,0.0,893.3333333333333,32.906666666666666,0.0
96.0,0.0,893.3333333333333,32.92,0.0
96.0,0.0,893.3333333333333,32.93333333333333,0.0
96.0,0.0,893.3333333333333,32.946666666666665,0.0
96.0,0.0,893.3333333333333,32.96,0.0
96.0,0.0,893.3333333333333,32.973333333333336,0.0
96.0,0.0,893.3333333333333,32.986666666666665,0.0
96.0,0.0,893.3333333333333,33.0,0.0
96.0,0.0,893.3333333333333,33.013333333333335,0.0
96.0,0.0,893.3333333333333,33.026666666666664,0.0
96.0,0.0,893.3333333333333,33.04,0.0
96.0,0.0,893.3333333333333,33.053333333333335,0.0
96.0,0.0,893.3333333333333,33.06666666666667,0.0
96.0,0.0,893.3333333333333,33.08,0.0
97.0,0.0,893.3333333333333,33.093333333333334,0.0
98.0,0.0,893.3333333333333,33.10666666666667,0.0
99.0,0.0,893.3333333333333,33.12,0.0
102.0,0.0,893.3333333333333,33.13333333333333,0.0
104.0,0.0,893.3333333333333,33.14666666666667,0.0
106.0,0.0,893.3333333333333,33.16,0.0
108.0,0.0,893.3333333333333,33.17333333333333,0.0
109.0,0.0,893.3333333333333,33.18666666666667,0.0
110.0,0.0,893.3333333333333,33.2,0.0
110.0,1.0,906.6666666666666,33.21333333333333,0.0
110.0,0.0,906.6666666666666,33.22666666666667,0.0
110.0,0.0,906.6666666666666,33.24,0.0
110.0,0.0,906.6666666666666,33.25333333333333,0.0
109.0,0.0,906.6666666666666,33.266666666666666,0.0
109.0,0.0,906.6666666666666,33.28,0.0
108.0,0.0,906.6666666666666,33.29333333333334,0.0
108.0,0.0,906.6666666666666,33.306666666666665,0.0
107.0,0.0,906.6666666666666,33.32,0.0
107.0,0.0,906.6666666666666,33.333333333333336,0.0
106.0,0.0,906.6666666666666,33.346666666666664,0.0
105.0,0.0,906.6666666666666,33.36,0.0
104.0,0.0,906.6666666666666,33.373333333333335,0.0
103.0,0.0,906.6666666666666,33.38666666666666,0.0
102.0,0.0,906.6666666666666,33.4,0.0
100.0,0.0,906.6666666666666,33.413333333333334,0.0
100.0,0.0,906.6666666666666,33.42666666666667,0.0
99.0,0.0,906.6666666666666,33.44,0.0
99.0,0.0,906.6666666666666,33.45333333333333,0.0
99.0,0.0,906.6666666666666,33.46666666666667,0.0
98.0,0.0,906.6666666666666,33.48,0.0
98.0,0.0,906.6666666666666,33.49333333333333,0.0
98.0,0.0,906.6666666666666,33.50666666666667,0.0
98.0,0.0,906.6666666666666,33.52,0.0
98.0,0.0,906.6666666666666,33.53333333333333,0.0
98.0,0.0,906.6666666666666,33.54666666666667,0.0
97.0,0.0,906.6666666666666,33.56,0.0
97.0,0.0,906.6666666666666,33.57333333333333,0.0
97.0,0.0,906.6666666666666,33.586666666666666,0.0
96.0,0.0,906.6666666666666,33.6,0.0
96.0,0.0,906.6666666666666,33.61333333333334,0.0
96.0,0.0,906.6666666666666,33.626666666666665,0.0
96.0,0.0,906.6666666666666,33.64,0.0
96.0,0.0,906.6666666666666,33.653333333333336,0.0
95.0,0.0,906.6666666666666,33.666666666666664,0.0
95.0,0.0,906.6666666666666,33.68,0.0
95.0,0.0,906.6666666666666,33.693333333333335,0.0
95.0,0.0,906.6666666666666,33.70666666666666,0.0
95.0,0.0,906.6666666666666,33.72,0.0
95.0,0.0,906.6666666666666,33.733333333333334,0.0
95.0,0.0,906.6666666666666,33.74666666666667,0.0
95.0,0.0,906.6666666666666,33.76,0.0
94.0,0.0,906.6666666666666,33.77333333333333,0.0
94.0,0.0,906.6666666666666,33.78666666666667,0.0
94.0,0.0,906.6666666666666,33.8,0.0
94.0,0.0,906.6666666666666,33.81333333333333,0.0
94.0,0.0,906.6666666666666,33.82666666666667,0.0
94.0,0.0,906.6666666666666,33.84,0.0
94.0,0.0,906.6666666666666,33.85333333333333,0.0
94.0,0.0,906.6666666666666,33.86666666666667,0.0
94.0,0.0,906.6666666666666,33.88,0.0
94.0,0.0,906.6666666666666,33.89333333333333,0.0
94.0,0.0,906.6666666666666,33.906666666666666,0.0
94.0,0.0,906.6666666666666,33.92,5.0
94.0,0.0,906.6666666666666,33.93333333333333,0.0
94.0,0.0,906.6666666666666,33.946666666666665,0.0
94.0,0.0,906.6666666666666,33.96,0.0
94.0,0.0,906.6666666666666,33.973333333333336,0.0
94.0,0.0,906.6666666666666,33.986666666666665,0.0
94.0,0.0,906.6666666666666,34.0,0.0
95.0,0.0,906.6666666666666,34.013333333333335,0.0
96.0,0.0,906.6666666666666,34.026666666666664,0.0
97.0,0.0,906.6666666666666,34.04,0.0
99.0,0.0,906.6666666666666,34.053333333333335,0.0
101.0,0.0,906.6666666666666,34.06666666666667,0.0
103.0,0.0,906.6666666666666,34.08,0.0
105.0,0.0,906.6666666666666,34.093333333333334,0.0
107.0,0.0,906.6666666666666,34.10666666666667,0.0
108.0,0.0,906.6666666666666,34.12,0.0
108.0,1.0,920.0,34.13333333333333,0.0
108.0,0.0,920.0,34.14666666666667,0.0
108.0,0.0,920.0,34.16,0.0
108.0,0.0,920.0,34.17333333333333,0.0
107.0,0.0,920.0,34.18666666666667,0.0
107.0,0.0,920.0,34.2,0.0
107.0,0.0,920.0,34.21333333333333,0.0
106.0,0.0,920.0,34.22666666666667,0.0
106.0,0.0,920.0,34.24,0.0
105.0,0.0,920.0,34.25333333333333,0.0
105.0,0.0,920.0,34.266666666666666,0.0
104.0,0.0,920.0,34.28,0.0
103.0,0.0,920.0,34.29333333333334,0.0
102.0,0.0,920.0,34.306666666666665,0.0
101.0,0.0,920.0,34.32,0.0
100.0,0.0,920.0,34.333333333333336,0.0
99.0,0.0,920.0,34.346666666666664,0.0
99.0,0.0,920.0,34.36,0.0
99.0,0.0,920.0,34.373333333333335,0.0
99.0,0.0,920.0,34.38666666666666,0.0
99.0,0.0,920.0,34.4,0.0
99.0,0.0,920.0,34.413333333333334,0.0
98.0,0.0,920.0,34.42666666666667,0.0
98.0,0.0,920.0,34.44,0.0
98.0,0.0,920.0,34.45333333333333,0.0
98.0,0.0,920.0,34.46666666666667,0.0
98.0,0.0,920.0,34.48,0.0
97.0,0.0,920.0,34.49333333333333,0.0
97.0,0.0,920.0,34.50666666666667,0.0
97.0,0.0,920.0,34.52,0.0
97.0,0.0,920.0,34.53333333333333,0.0
97.0,0.0,920.0,34.54666666666667,0.0
96.0,0.0,920.0,34.56,0.0
96.0,0.0,920.0,34.57333333333333,0.0
96.0,0.0,920.0,34.586666666666666,0.0
96.0,0.0,920.0,34.6,0.0
96.0,0.0,920.0,34.61333333333334,0.0
96.0,0.0,920.0,34.626666666666665,0.0
96.0,0.0,920.0,34.64,0.0
96.0,0.0,920.0,34.653333333333336,0.0
96.0,0.0,920.0,34.666666666666664,0.0
96.0,0.0,920.0,34.68,0.0
96.0,0.0,920.0,34.693333333333335,0.0
96.0,0.0,920.0,34.70666666666666,0.0
96.0,0.0,920.0,34.72,0.0
96.0,0.0,920.0,34.733333333333334,0.0
96.0,0.0,920.0,34.74666666666667,0.0
96.0,0.0,920.0,34.76,0.0
96.0,0.0,920.0,34.77333333333333,0.0
96.0,0.0,920.0,34.78666666666667,0.0
96.0,0.0,920.0,34.8,0.0
96.0,0.0,920.0,34.81333333333333,0.0
96.0,0.0,920.0,34.82666666666667,0.0
96.0,0.0,920.0,34.84,0.0
96.0,0.0,920.0,34.85333333333333,0.0
96.0,0.0,920.0,34.86666666666667,0.0
96.0,0.0,920.0,34.88,0.0
96.0,0.0,920.0,34.89333333333333,0.0
97.0,0.0,920.0,34.906666666666666,0.0
98.0,0.0,920.0,34.92,0.0
99.0,0.0,920.0,34.93333333333333,0.0
101.0,0.0,920.0,34.946666666666665,0.0
104.0,0.0,920.0,34.96,0.0
106.0,0.0,920.0,34.973333333333336,0.0
107.0,0.0,920.0,34.986666666666665,0.0
109.0,0.0,920.0,35.0,0.0
109.0,1.0,880.0,35.013333333333335,0.0
110.0,0.0,880.0,35.026666666666664,0.0
110.0,0.0,880.0,35.04,0.0
109.0,0.0,880.0,35.053333333333335,0.0
109.0,0.0,880.0,35.06666666666667,0.0
109.0,0.0,880.0,35.08,2.0
108.0,0.0,880.0,35.093333333333334,0.0
108.0,0.0,880.0,35.10666666666667,0.0
107.0,0.0,880.0,35.12,0.0
107.0,0.0,880.0,35.13333333333333,0.0
106.0,0.0,880.0,35.14666666666667,0.0
105.0,0.0,880.0,35.16,0.0
105.0,0.0,880.0,35.17333333333333,0.0
103.0,0.0,880.0,35.18666666666667,0.0
102.0,0.0,880.0,35.2,0.0
101.0,0.0,880.0,35.21333333333333,0.0
100.0,0.0,880.0,35.22666666666667,0.0
100.0,0.0,880.0,35.24,0.0
99.0,0.0,880.0,35.25333333333333,0.0
99.0,0.0,880.0,35.266666666666666,0.0
99.0,0.0,880.0,35.28,0.0
99.0,0.0,880.0,35.29333333333334,0.0
99.0,0.0,880.0,35.306666666666665,0.0
98.0,0.0,880.0,35.32,0.0
98.0,0.0,880.0,35.333333333333336,0.0
98.0,0.0,880.0,35.346666666666664,0.0
98.0,0.0,880.0,35.36,0.0
97.0,0.0,880.0,35.373333333333335,0.0
97.0,0.0,880.0,35.38666666666666,0.0
97.0,0.0,880.0,35.4,0.0
97.0,0.0,880.0,35.413333333333334,0.0
96.0,0.0,880.0,35.42666666666667,0.0
96.0,0.0,880.0,35.44,0.0
96.0,0.0,880.0,35.45333333333333,0.0
96.0,0.0,880.0,35.46666666666667,0.0
96.0,0.0,880.0,35.48,0.0
96.0,0.0,880.0,35.49333333333333,0.0
95.0,0.0,880.0,35.50666666666667,0.0
95.0,0.0,880.0,35.52,0.0
95.0,0.0,880.0,35.53333333333333,0.0
95.0,0.0,880.0,35.54666666666667,0.0
95.0,0.0,880.0,35.56,0.0
95.0,0.0,880.0,35.57333333333333,0.0
95.0,0.0,880.0,35.586666666666666,0.0
95.0,0.0,880.0,35.6,0.0
95.0,0.0,880.0,35.61333333333334,0.0
95.0,0.0,880.0,35.626666666666665,0.0
95.0,0.0,880.0,35.64,0.0
95.0,0.0,880.0,35.653333333333336,0.0
95.0,0.0,880.0,35.666666666666664,0.0
95.0,0.0,880.0,35.68,0.0
95.0,0.0,880.0,35.693333333333335,0.0
95.0,0.0,880.0,35.70666666666666,0.0
95.0,0.0,880.0,35.72,0.0
95.0,0.0,880.0,35.733333333333334,0.0
95.0,0.0,880.0,35.74666666666667,0.0
95.0,0.0,880.0,35.76,0.0
95.0,0.0,880.0,35.77333333333333,0.0
95.0,0.0,880.0,35.78666666666667,0.0
95.0,0.0,880.0,35.8,0.0
96.0,0.0,880.0,35.81333333333333,0.0
97.0,0.0,880.0,35.82666666666667,0.0
98.0,0.0,880.0,35.84,0.0
100.0,0.0,880.0,35.85333333333333,0.0
102.0,0.0,880.0,35.86666666666667,0.0
105.0,0.0,880.0,35.88,0.0
107.0,0.0,880.0,35.89333333333333,0.0
108.0,0.0,880.0,35.906666666666666,0.0
109.0,0.0,880.0,35.92,0.0
109.0,1.0,920.0,35.93333333333333,0.0
109.0,0.0,920.0,35.946666666666665,0.0
109.0,0.0,920.0,35.96,0.0
108.0,0.0,920.0,35.973333333333336,0.0
108.0,0.0,920.0,35.986666666666665,0.0
108.0,0.0,920.0,36.0,0.0
107.0,0.0,920.0,36.013333333333335,0.0
107.0,0.0,920.0,36.026666666666664,0.0
106.0,0.0,920.0,36.04,0.0
106.0,0.0,920.0,36.053333333333335,0.0
105.0,0.0,920.0,36.06666666666667,0.0
104.0,0.0,920.0,36.08,0.0
103.0,0.0,920.0,36.093333333333334,0.0
102.0,0.0,920.0,36.10666666666667,0.0
101.0,0.0,920.0,36.12,0.0
100.0,0.0,920.0,36.13333333333333,0.0
99.0,0.0,920.0,36.14666666666667,0.0
98.0,0.0,920.0,36.16,0.0
98.0,0.0,920.0,36.17333333333333,0.0
98.0,0.0,920.0,36.18666666666667,0.0
98.0,0.0,920.0,36.2,0.0
98.0,0.0,920.0,36.21333333333333,0.0
98.0,0.0,920.0,36.22666666666667,0.0
98.0,0.0,920.0,36.24,0.0
98.0,0.0,920.0,36.25333333333333,0.0
97.0,0.0,920.0,36.266666666666666,0.0
97.0,0.0,920.0,36.28,0.0
97.0,0.0,920.0,36.29333333333334,0.0
97.0,0.0,920.0,36.306666666666665,0.0
96.0,0.0,920.0,36.32,0.0
96.0,0.0,920.0,36.333333333333336,0.0
96.0,0.0,920.0,36.346666666666664,0.0
96.0,0.0,920.0,36.36,0.0
96.0,0.0,920.0,36.373333333333335,0.0
96.0,0.0,920.0,36.38666666666666,0.0
96.0,0.0,920.0,36.4,0.0
95.0,0.0,920.0,36.413333333333334,0.0
95.0,0.0,920.0,36.42666666666667,0.0
95.0,0.0,920.0,36.44,0.0
95.0,0.0,920.0,36.45333333333333,0.0
95.0,0.0,920.0,36.46666666666667,0.0
95.0,0.0,920.0,36.48,0.0
95.0,0.0,920.0,36.49333333333333,0.0
95.0,0.0,920.0,36.50666666666667,0.0
96.0,0.0,920.0,36.52,0.0
96.0,0.0,920.0,36.53333333333333,0.0
96.0,0.0,920.0,36.54666666666667,0.0
96.0,0.0,920.0,36.56,0.0
96.0,0.0,920.0,36.57333333333333,0.0
96.0,0.0,920.0,36.586666666666666,0.0
96.0,0.0,920.0,36.6,0.0
96.0,0.0,920.0,36.61333333333334,0.0
96.0,0.0,920.0,36.626666666666665,0.0
96.0,0.0,920.0,36.64,0.0
96.0,0.0,920.0,36.653333333333336,0.0
96.0,0.0,920.0,36.666666666666664,0.0
97.0,0.0,920.0,36.68,0.0
98.0,0.0,920.0,36.693333333333335,0.0
99.0,0.0,920.0,36.70666666666666,0.0
101.0,0.0,920.0,36.72,0.0
103.0,0.0,920.0,36.733333333333334,0.0
105.0,0.0,920.0,36.74666666666667,0.0
107.0,0.0,920.0,36.76,0.0
108.0,0.0,920.0,36.77333333333333,0.0
109.0,0.0,920.0,36.78666666666667,0.0
109.0,1.0,866.6666666666667,36.8,0.0
109.0,0.0,866.6666666666667,36.81333333333333,0.0
109.0,0.0,866.6666666666667,36.82666666666667,0.0
108.0,0.0,866.6666666666667,36.84,0.0
108.0,0.0,866.6666666666667,36.85333333333333,0.0
108.0,0.0,866.6666666666667,36.86666666666667,0.0
107.0,0.0,866.6666666666667,36.88,0.0
107.0,0.0,866.6666666666667,36.89333333333333,0.0
106.0,0.0,866.6666666666667,36.906666666666666,0.0
106.0,0.0,866.6666666666667,36.92,0.0
105.0,0.0,866.6666666666667,36.93333333333333,0.0
104.0,0.0,866.6666666666667,36.946666666666665,0.0
103.0,0.0,866.6666666666667,36.96,0.0
101.0,0.0,866.6666666666667,36.973333333333336,0.0
100.0,0.0,866.6666666666667,36.986666666666665,0.0
100.0,0.0,866.6666666666667,37.0,0.0
99.0,0.0,866.6666666666667,37.013333333333335,0.0
99.0,0.0,866.6666666666667,37.026666666666664,0.0
99.0,0.0,866.6666666666667,37.04,0.0
99.0,0.0,866.6666666666667,37.053333333333335,0.0
98.0,0.0,866.6666666666667,37.06666666666667,0.0
98.0,0.0,866.6666666666667,37.08,0.0
98.0,0.0,866.6666666666667,37.093333333333334,0.0
98.0,0.0,866.6666666666667,37.10666666666667,0.0
98.0,0.0,866.6666666666667,37.12,0.0
98.0,0.0,866.6666666666667,37.13333333333333,0.0
97.0,0.0,866.6666666666667,37.14666666666667,0.0
97.0,0.0,866.6666666666667,37.16,0.0
97.0,0.0,866.6666666666667,37.17333333333333,0.0
97.0,0.0,866.6666666666667,37.18666666666667,0.0
97.0,0.0,866.6666666666667,37.2,0.0
96.0,0.0,866.6666666666667,37.21333333333333,0.0
96.0,0.0,866.6666666666667,37.22666666666667,0.0
96.0,0.0,866.6666666666667,37.24,0.0
96.0,0.0,866.6666666666667,37.25333333333333,0.0
96.0,0.0,866.6666666666667,37.266666666666666,0.0
96.0,0.0,866.6666666666667,37.28,0.0
96.0,0.0,866.6666666666667,37.29333333333334,0.0
96.0,0.0,866.6666666666667,37.306666666666665,0.0
96.0,0.0,866.6666666666667,37.32,0.0
96.0,0.0,866.6666666666667,37.333333333333336,0.0
96.0,0.0,866.6666666666667,37.346666666666664,0.0
96.0,0.0,866.6666666666667,37.36,0.0
96.0,0.0,866.6666666666667,37.373333333333335,0.0
96.0,0.0,866.6666666666667,37.38666666666666,0.0
96.0,0.0,866.6666666666667,37.4,0.0
96.0,0.0,866.6666666666667,37.413333333333334,0.0
96.0,0.0,866.6666666666667,37.42666666666667,0.0
96.0,0.0,866.6666666666667,37.44,0.0
96.0,0.0,866.6666666666667,37.45333333333333,0.0
96.0,0.0,866.6666666666667,37.46666666666667,0.0
96.0,0.0,866.6666666666667,37.48,0.0
96.0,0.0,866.6666666666667,37.49333333333333,0.0
96.0,0.0,866.6666666666667,37.50666666666667,0.0
96.0,0.0,866.6666666666667,37.52,0.0
96.0,0.0,866.6666666666667,37.53333333333333,0.0
96.0,0.0,866.6666666666667,37.54666666666667,0.0
97.0,0.0,866.6666666666667,37.56,0.0
98.0,0.0,866.6666666666667,37.57333333333333,0.0
99.0,0.0,866.6666666666667,37.586666666666666,0.0
101.0,0.0,866.6666666666667,37.6,0.0
104.0,0.0,866.6666666666667,37.61333333333334,0.0
106.0,0.0,866.6666666666667,37.626666666666665,0.0
108.0,0.0,866.6666666666667,37.64,0.0
109.0,0.0,866.6666666666667,37.653333333333336,0.0
110.0,0.0,866.6666666666667,37.666666666666664,0.0
110.0,1.0,880.0,37.68,0.0
110.0,0.0,880.0,37.693333333333335,0.0
109.0,0.0,880.0,37.70666666666666,0.0
109.0,0.0,880.0,37.72,0.0
109.0,0.0,880.0,37.733333333333334,0.0
108.0,0.0,880.0,37.74666666666667,0.0
108.0,0.0,880.0,37.76,0.0
108.0,0.0,880.0,37.77333333333333,0.0
107.0,0.0,880.0,37.78666666666667,0.0
107.0,0.0,880.0,37.8,0.0
106.0,0.0,880.0,37.81333333333333,0.0
105.0,0.0,880.0,37.82666666666667,0.0
104.0,0.0,880.0,37.84,0.0
102.0,0.0,880.0,37.85333333333333,0.0
101.0,0.0,880.0,37.86666666666667,0.0
100.0,0.0,880.0,37.88,0.0
99.0,0.0,880.0,37.89333333333333,0.0
99.0,0.0,880.0,37.906666666666666,0.0
99.0,0.0,880.0,37.92,0.0
98.0,0.0,880.0,37.93333333333333,0.0
98.0,0.0,880.0,37.946666666666665,0.0
98.0,0.0,880.0,37.96,0.0
98.0,0.0,880.0,37.973333333333336,0.0
98.0,0.0,880.0,37.986666666666665,0.0
98.0,0.0,880.0,38.0,0.0
97.0,0.0,880.0,38.013333333333335,0.0
97.0,0.0,880.0,38.026666666666664,0.0
97.0,0.0,880.0,38.04,0.0
97.0,0.0,880.0,38.053333333333335,0.0
96.0,0.0,880.0,38.06666666666667,0.0
96.0,0.0,880.0,38.08,0.0
96.0,0.0,880.0,38.093333333333334,0.0
95.0,0.0,880.0,38.10666666666667,0.0
95.0,0.0,880.0,38.12,0.0
95.0,0.0,880.0,38.13333333333333,0.0
95.0,0.0,880.0,38.14666666666667,0.0
95.0,0.0,880.0,38.16,0.0
95.0,0.0,880.0,38.17333333333333,0.0
95.0,0.0,880.0,38.18666666666667,0.0
95.0,0.0,880.0,38.2,0.0
94.0,0.0,880.0,38.21333333333333,0.0
94.0,0.0,880.0,38.22666666666667,0.0
94.0,0.0,880.0,38.24,0.0
94.0,0.0,880.0,38.25333333333333,0.0
94.0,0.0,880.0,38.266666666666666,0.0
94.0,0.0,880.0,38.28,0.0
94.0,0.0,880.0,38.29333333333334,0.0
94.0,0.0,880.0,38.306666666666665,0.0
94.0,0.0,880.0,38.32,0.0
94.0,0.0,880.0,38.333333333333336,0.0
94.0,0.0,880.0,38.346666666666664,0.0
94.0,0.0,880.0,38.36,0.0
94.0,0.0,880.0,38.373333333333335,0.0
94.0,0.0,880.0,38.38666666666666,0.0
94.0,0.0,880.0,38.4,0.0
94.0,0.0,880.0,38.413333333333334,0.0
94.0,0.0,880.0,38.42666666666667,0.0
94.0,0.0,880.0,38.44,0.0
95.0,0.0,880.0,38.45333333333333,0.0
96.0,0.0,880.0,38.46666666666667,0.0
97.0,0.0,880.0,38.48,0.0
99.0,0.0,880.0,38.49333333333333,0.0
101.0,0.0,880.0,38.50666666666667,0.0
104.0,0.0,880.0,38.52,0.0
106.0,0.0,880.0,38.53333333333333,0.0
107.0,0.0,880.0,38.54666666666667,0.0
108.0,0.0,880.0,38.56,0.0
109.0,0.0,880.0,38.57333333333333,0.0
109.0,1.0,906.6666666666666,38.586666666666666,0.0
108.0,0.0,906.6666666666666,38.6,0.0
108.0,0.0,906.6666666666666,38.61333333333334,0.0
108.0,0.0,906.6666666666666,38.626666666666665,0.0
107.0,0.0,906.6666666666666,38.64,0.0
107.0,0.0,906.6666666666666,38.653333333333336,0.0
106.0,0.0,906.6666666666666,38.666666666666664,0.0
106.0,0.0,906.6666666666666,38.68,0.0
105.0,0.0,906.6666666666666,38.693333333333335,0.0
